0.03395144073034295,-0.1281224440716159,-0.20035370567147437,-0.1838942446143103,-0.09418830423839739,0.05049925086502802,0.23195271935329848,0.4279745799692186,0.610428011105487,0.7513393409980798,0.8333749727444839,0.8556500396366961,0.830812292061463,0.7759263690161915,0.702079998690327,0.6084054721619744,0.48352053561387137,0.31308154627776597,0.08897498319947961,-0.1863148049351966,-0.5022060974142031,-0.8453121548699305,-1.20401522038182,-1.5706707904867945,-1.9409733175017427,-2.312656932684082,-2.6848259584804377,-3.0559196017203116,-3.4200214317246096,-3.765676154869543,-4.080003741652446,-4.353630950218978,-4.578597171756238,-4.738084882524215,-4.797394075471361,-4.70922933613273,-4.4377971656489414,-3.9886677958760504,-3.4201704833407747,-2.822340880408653,-2.273111545619504,-1.796426802621706,-1.3439698279006198,-0.811290437908789,-0.08761223490998471,0.8781485060297756,2.0278099231006124,3.1926783912480685,4.15159258063141,4.7246690422070445,4.852792428544736,4.6170070412731885,4.1867995987332325,3.7310309611034476,3.3477004673670776,3.049686933266876,2.8006274613123483,2.5632694681226207,2.323710179195124,2.085709366961745,1.8561732420896546,1.6384522289174717,1.4328917875509375,1.2389375920678762,1.0562448932222337,0.8847853833294345,0.7246220809987042,0.5757520491276582,0.43807694442534517,0.3114312642517737,0.1956107800776417,0.09038555815043287,-0.004496486072631256,-0.08930782874307341,-0.16433834721738383,-0.22989128438021744,-0.28627914265300103,-0.3338203499506706,-0.3728373907287064,-0.4036564105864705,-0.4266059942676861,-0.44200965467319886,-0.4501682155427424,-0.4513440765517917,-0.4457886960099285,-0.43386074478677894,-0.41618514542602564,-0.39356180752383685,-0.36615868274263963,-0.3325631465546975,-0.2904930651261234,-0.239129135383201,-0.18106502239227332,-0.12293251735553781,-0.07415277227323816,-0.04322818302502289,-0.033228311756323056,-0.04007259340549246,-0.05539112189354009,-0.07114578735047045,-0.08218927782759919,-0.08681657284071517,-0.08639334023630574,-0.08347060270797654,-0.079515036244819,-0.07440931836896317,-0.06707781034086907,-0.05590855533908587,-0.039509960973295705,-0.017830871566812873,0.007636450986574547,0.034467562454564435,0.05970925378678084,0.08035534731858919,0.09395179038842931,0.0988124117699091,0.09440147988640776,0.08198749520379295,0.06445176419387377,0.04517151777706793,0.027349584447091915,0.01432529050269045,0.009522083244787635,0.014870163112207721,0.029192821404433626,0.04905311962491782,0.07126296941968092,0.09400422492535078,0.11623713539181496,0.13730849229482783,0.15710703370839052,0.1758135020673578,0.1933895498543455,0.2097857248166825,0.22534246704678576,0.24012601708396122,0.2530593475711745,0.26240190382051404,0.2669087174348216,0.26629298059100426,0.2611284961125912,0.2523794062623385,0.24074424910442652,0.2265828584413408,0.2099262526723402,0.19002359814504913,0.16496999622633557,0.13163553623946514,0.08617365897363323,0.025248771107977547,-0.05251533093559182,-0.14594783373325904,-0.2529119136719105,-0.37298898176820927,-0.5084426066861901,-0.6627693913317003,-0.8379504311300122,-1.031893082430485,-1.237752238034253,-1.4447370942069238,-1.6384996692744191,-1.8011273297953525,1
0.015088492327226461,0.025606825637683513,0.03719189125198115,0.04983928785049248,0.06333675433604113,0.07730751803450611,0.09178335817269419,0.10780792661397488,0.12683397487069148,0.14942153820170442,0.17436739980706556,0.19832832549661988,0.2168576525546412,0.22665281924681135,0.2266848620639001,0.2178233508815924,0.2020820311232771,0.1813836582455789,0.15591632274408895,0.12382439795987212,0.08330946094595151,0.034754324407986245,-0.020149923099069114,-0.080847609159897,-0.14830160971974804,-0.2232375998020557,-0.30464276815698393,-0.3894420625885934,-0.4732461190291527,-0.5511909717094128,-0.617402723248501,-0.664522592170203,-0.6853273657387751,-0.6749448347064451,-0.631771871218741,-0.5573978067870197,-0.4561275445771022,-0.3339172724643338,-0.19678247803674598,-0.04968552338323418,0.10320118813757079,0.2572990331786431,0.40721366574069473,0.547559697891845,0.6733394471696461,0.780246782394402,0.8662468687781342,0.9320899243598582,0.9789033259389138,1.005881049997388,1.0108510692529153,0.9922970414427827,0.9504836228844313,0.8868092562402224,0.8026443014211311,0.7001682026453546,0.5844049617795603,0.4628829661919859,0.34243878295883484,0.2263911685713867,0.11448319976314603,0.005033237664758883,-0.1024386245982308,-0.205548817504949,-0.2991802382740834,-0.3774067223353549,-0.43616570218250467,-0.47511881752409524,-0.49752334374939094,-0.5081152756068684,-0.5109155241389501,-0.5085276940361529,-0.5024261584411585,-0.4934303620003821,-0.48221313866159454,-0.46970766653615953,-0.4565841402584292,-0.44209649610650925,-0.4242688430718974,-0.40162645568325855,-0.37487617792084593,-0.34716100001643646,-0.32254718253641906,-0.30391685898220905,-0.2915704370369644,-0.2829309388965264,-0.2731950715658004,-0.2569131045291895,-0.23005472894620002,-0.1910847155132039,-0.14089503007956067,-0.08267481687546882,-0.02134522000564651,0.03809521851916775,0.09253196772776993,0.14147388436055702,0.18584941545461986,0.22608371638077918,0.26117953537494965,0.2891825642527134,0.30815297483883397,0.3167705151376423,0.3146227710302945,0.3020637122662971,0.27952765814823793,0.24759232715089527,0.20808514312581078,0.16404210356732984,0.11813134493175084,0.07199219966202217,0.0269480995798702,-0.015888249798309648,-0.056343545951341986,-0.09513386691069736,-0.13280806497666012,-0.16867165081241517,-0.20046918661463195,-0.2252824989682746,-0.24075443028436946,-0.24546311086659955,-0.23886410535765223,-0.22117456128132232,-0.193196614537858,-0.1569375336710249,-0.1164943275259972,-0.07684255750836919,-0.04119994230528432,-0.010386728100062276,0.015875472613895998,0.03811423002683728,0.05671669736291454,0.07158249419361917,0.08211981990270308,0.08728945740639296,0.08618979760488682,0.07929883121130149,0.06898271113785853,0.05898433436272856,0.053174995968251586,0.05392187679227195,0.06116437204632831,0.07242521389853902,0.08390165734877456,0.09251346983406665,0.09732494596880775,0.09928540795177201,0.09964447289608683,0.09883985183580199,0.09711342535960671,0.09541083873788905,0.0951201530879234,0.09690588015672442,0.09970454221175233,0.1009465518959785,0.09798513627062828,0.08979405494627338,0.0778123280868793,0.06512209057157314,0.054517721135063674,0.047108576773394015,0.041928448652312295,0.03612512700859473,1
0.3410379505789039,0.4280724824458886,0.48671168948704124,0.5171501025754982,0.5225157012768344,0.5056654672760845,0.46635518826608807,0.4021393065006353,0.31215233459965486,0.1992105938459264,0.06911794222618142,-0.07069981309260812,-0.21278113157336054,-0.3513839550651465,-0.48264583406358474,-0.6034060641109973,-0.7114385855926741,-0.8064873315889116,-0.8894852427239412,-0.9607504050745992,-1.018659691683103,-1.0592192291793494,-1.0776348647028982,-1.07104710145726,-1.039513831431186,-0.9846830947687573,-0.9084919551610956,-0.8135587038511574,-0.7044700882942166,-0.5885114822739201,-0.4747813719143775,-0.37100595720464025,-0.278999469741118,-0.19202942587751787,-0.09789181695320323,0.013066575372561173,0.14152844871283166,0.2792701348291756,0.4143089628822332,0.5370325722057784,0.6437741040630612,0.7363258432288063,0.8192891637518814,0.8981512735546955,0.9784517033714388,1.0641198294881065,1.1544136299972003,1.2421591908547636,1.3156225314049552,1.3631539553681926,1.377486234368771,1.3562662321448413,1.2990318158008167,1.2048970091358266,1.073243388902229,0.9059172449407312,0.7087963361306389,0.49077588214929146,0.2606014107898691,0.025060450726001132,-0.20978594072528117,-0.435438547077091,-0.637982804191588,-0.7987704084104306,-0.9004821497687044,-0.935923246218542,-0.914643574235392,-0.8623716176896616,-0.812032249261996,-0.7917822267864226,-0.8165717050276737,-0.8854128204394838,-0.983614325507745,-1.0881683513605231,-1.1748134123862524,-1.225462117606319,-1.2326837008314417,-1.1985833748553567,-1.1298584972469992,-1.0330352029872423,-0.9126225519128707,-0.7723553165372972,-0.6169556086685299,-0.4520395630393805,-0.2833731667469814,-0.11694237357675222,0.041467374476677255,0.1872756897809043,0.3172765085057392,0.42909155947766686,0.5206238894807788,0.5904035387275202,0.639267053544703,0.6717401950739038,0.6955610341400894,0.7193747365012477,0.748914251529263,0.7837298432374772,0.8176992195011294,0.8427820073619555,0.8525038387193793,0.8436331758729692,0.8170250028930891,0.778179189862268,0.7366045086821407,0.7032799825986334,0.6870815462325811,0.6928018538604406,0.7219394610957611,0.7733041350282723,0.8405050230741582,0.9068206841992773,0.9430114378287648,0.9168390893214273,0.8125893841786798,0.6451412146410752,0.45577072488779935,0.2901811166975832,0.17236236668103253,0.09298033913938847,0.02095336346819124,-0.07112082029755293,-0.18727657243649612,-0.30826162942624435,-0.4090372079464751,-0.4775425416413003,-0.5196815087131459,-0.5501559321645867,-0.5805841093129165,-0.6143944610563632,-0.649140778652047,-0.6812935864609492,-0.7089093907993816,-0.7313315525459378,-0.747344655443487,-0.7538134022526815,-0.7466741784165927,-0.7235433362845326,-0.6858480089143413,-0.6391731017737272,-0.5907565260622927,-0.5455049549893932,-0.503893101036189,-0.4627093788163647,-0.41758727500992093,-0.3657567412651675,-0.3070549687205511,-0.2431096522828249,-0.17642500518875415,-0.10971185136805583,-0.04505561242491024,0.016103044364562114,0.07212761143085003,0.12142427069649434,0.16375469914067572,0.200274299125051,0.23224157169832976,0.26011663344361136,0.28362664440633617,0.3025752592026215,0.3169992581259755,0.3264173926420061,1
0.9628995894317185,0.8362909773205691,0.7285368277001937,0.6316928441739248,0.5368972259850545,0.43561192527771275,0.3216850317273,0.19351982203039564,0.05505288552989407,-0.08591136164673518,-0.22151048579744875,-0.34766167967600276,-0.4658736496705848,-0.5826015493397592,-0.7073422342816165,-0.8504353913486831,-1.0208103919996327,-1.2235179902373876,-1.4573659268884387,-1.7146667203826715,-1.9843185464667434,-2.2566161350386804,-2.5266469170265475,-2.7932763164473338,-3.0542795462585026,-3.302806504208909,-3.5289563164292357,-3.724232453973727,-3.8846984306160777,-4.011236468129199,-4.106974706336081,-4.173092952265157,-4.205734427485614,-4.1960102558313155,-4.132623078385857,-4.004726019119596,-3.8031923213676007,-3.5209754988624886,-3.1548972596537785,-2.7111133493789996,-2.2113086630108247,-1.6871756369111954,-1.1539675147251205,-0.5798308725467948,0.11196704469965768,0.9899999859954506,2.040250262558456,3.128867670498911,4.041619734280431,4.586144770406923,4.693360468611212,4.4479134970371454,4.028467704745276,3.605212766288086,3.265857475938684,3.0094114738707374,2.7924736197427205,2.5795756602192257,2.361320488428887,2.143737413394687,1.9337631071923298,1.734177930379617,1.5449928051114483,1.3656168363510117,1.19578216313894,1.0355243662497857,0.8849307246351893,0.7440002617442211,0.6126313617730301,0.49065534932824634,0.37786340935162605,0.2740171896316269,0.17885127043797056,0.09207491523648587,0.01337534105092969,-0.05757812050450861,-0.1211299330701,-0.17763473600719298,-0.22745417306209192,-0.27095404418406943,-0.3085017057005289,-0.34046370061765174,-0.3672036207823892,-0.38908019928728627,-0.4064456240497089,-0.41964405984814973,-0.4290103658473555,-0.4348689964577487,-0.4375330739691925,-0.4373036216245655,-0.4344689459006029,-0.42930415692306884,-0.42207081619874653,-0.4130167011687522,-0.40237567644506245,-0.3903676619705563,-0.37719868873877016,-0.36306103312159227,-0.34813342127859803,-0.3325812955568268,-0.31655713523059054,-0.3002008243739046,-0.2836400601003626,-0.2669907948441249,-0.25035770678882147,-0.23383469297648518,-0.21750538004427855,-0.20144364794112646,-0.18571416236802668,-0.1703729120635917,-0.15546774741928654,-0.14103891725605816,-0.127119600924962,-0.11373643320849136,-0.10091001979626214,-0.08865544138828424,-0.07698274474117037,-0.06589741921730373,-0.05540085762431991,-0.04549080034245443,-0.03616176193064173,-0.02740543957906865,-0.01921110293659282,-0.011565964986491956,-0.004455533773917619,0.0021360550962698545,0.008225725171334592,0.013831164964367683,0.018970552687012712,0.023662299655479446,0.02792481207272685,0.03177627084915209,0.03523442909374319,0.03831642688676655,0.04103862293299115,0.04341644269052131,0.045464242573847485,0.04719518984006026,0.04862115778363972,0.049752635887172825,0.050598654602111603,0.05116672446461602,0.05146278928598692,0.05149119319454913,0.051254661345463186,0.050754294156201016,0.04998957496769763,0.048958391073867645,0.04765706810464043,0.04608041778931195,0.04422179916722512,0.04207319335096709,0.03962529198280375,0.036867599557354525,0.03378854981193666,0.030375636409972488,0.026615558161746426,0.022494379040014154,0.017997703254896573,0.013110865652527915,0.007819137694463994,0.0021079492592887073,1
0.6473381975555564,0.6482767063852249,0.6449832583225669,0.6370118105238006,0.6238982734946931,0.6051616190485943,0.5803052238019323,0.5488184651639946,0.5101785876851391,0.46385285896802303,0.40930103444202576,0.34597814572952285,0.27333761672922025,0.19083470475270278,0.09793028830565208,-0.005904897736344559,-0.12118539417966377,-0.24840544251296187,-0.38803320012121123,-0.5405061084812899,-0.7062285620524971,-0.8855692743457187,-1.0788481354523303,-1.2862994799394059,-1.5080209787275678,-1.7439782872107479,-1.994188028914261,-2.259089095713787,-2.539661231184486,-2.836263281555966,-3.1455521357783285,-3.4579334707970726,-3.7634618185769417,-4.074693714581781,-4.455645874277254,-5.000358399020212,-5.662321841683345,-5.932558448102178,-4.86998530927174,-2.616490422678726,-1.4073659300195875,-2.2108677062526647,-2.309807783945101,0.09170770321460509,2.109442661736416,0.3052974207099415,-3.3821554717773594,-3.542840788336044,0.8369334947144624,5.425585028636457,7.159575991002322,6.738331282396948,5.811630206564193,5.131141877795738,4.724939916522901,4.421916095484947,4.113968067881019,3.7829482634345224,3.4473241946564697,3.123393539174834,2.8163751657443274,2.52538635828879,2.2487615377918786,1.9859007358084995,1.7369673865669077,1.50222695535252,1.2817409156966946,1.0753663969304061,0.882843019821816,0.7038503510863084,0.5380245581277534,0.38495831560354843,0.24420126316733826,0.11526492557111401,-0.0023701540662467435,-0.10924743163757966,-0.20592833129398602,-0.29298700872402705,-0.3710055936387159,-0.44056975631923656,-0.5022645787725487,-0.5566707488642103,-0.604361082001023,-0.6458973564998236,-0.6818274413543731,-0.7126826955572203,-0.7389756204346416,-0.7611977478644028,-0.7798177477213647,-0.7952797381265749,-0.8080017824780377,-0.8183745578740803,-0.8267601803217617,-0.8334911729839074,-0.8388695646343964,-0.843166106461021,-0.8466195963797851,-0.8494363011005872,-0.8517894673054576,-0.8538189144600563,-0.8556307029709133,-0.8572968726195401,-0.8588552474450865,-0.8603093045047786,-0.8616281052111958,-0.8627462892227479,-0.8635641321438488,-0.863947669569512,-0.863728891280685,-0.8627060106567656,-0.8606438156154687,-0.8572741086125149,-0.8522962444291999,-0.8453777756389751,-0.8361552167680194,-0.8242349392422782,-0.8091942102387566,-0.7905823895302954,-0.7679222993320568,-0.740711783016423,-0.7084254693186476,-0.670516759224017,-0.6264200530579661,-0.5755532355767651,-0.5173204376566387,-0.45111509508431674,-0.37632332705192467,-0.2923276549872398,-0.1985110701423221,-0.09426143818443218,0.021023770758303036,0.14793236249268615,0.2870316780817746,0.43886191296701543,0.6039286157714703,0.7826958065340126,0.9755824606925495,1.1829630520977672,1.4051633056136248,1.642428659326128,1.8948483840011972,2.162282153015717,2.444458570284189,2.7414492165314175,3.0543342518985845,3.384877075090841,3.732249482463307,4.086882236634654,4.429014273760645,4.748655656689735,5.0880838304845,5.558156981427204,6.269059373732078,7.189031971524091,8.024707825470772,8.24071745096082,7.279731595042967,4.896781771773812,1.3916912965234305,-2.4451484664099317,-5.673319884448205,-7.632255200267419,1
-0.15114602821289574,-0.160112256093483,-0.16899931507224386,-0.17773901016622892,-0.1862565893826664,-0.19447051844776886,-0.20229227598111227,-0.20962617274690618,-0.21636919885412634,-0.22241090301874544,-0.22763330824149008,-0.2319108684920406,-0.23511047122422576,-0.23709149077588176,-0.23770589792975488,-0.23679843112128665,-0.23420683496146624,-0.22976217188684606,-0.2232892128747121,-0.2146069133508223,-0.20352898076831974,-0.18986454075349585,-0.17341890860172038,-0.15399447128234003,-0.13139168201003945,-0.10541016864684297,-0.0758499670642963,-0.04251291554181763,-0.005204264646681599,0.03626549651078241,0.08207878701932925,0.13240946864311606,0.18742197019306447,0.2472698759042627,0.3120906761738188,0.381993518227111,0.45704533476899173,0.537279373646622,0.6227597124623772,0.7136863103763977,0.8103789513468929,0.912835674112942,1.0197936161163617,1.1282814257429532,1.2361559302733074,1.3484428293983841,1.4808370213424877,1.6504295076595523,1.8548115615879484,2.054806453621312,2.177947798489633,2.148409277047244,1.9298728681518211,1.553917734071689,1.1117433388593154,0.7107285287156404,0.42293823119106994,0.2573611753046918,0.16928125589547188,0.09708391588830279,0.0003998158276671826,-0.1248909750061063,-0.25753815362012206,-0.37333839652168954,-0.46391350228543904,-0.5402127423538807,-0.6191031581747912,-0.7072014549472663,-0.798039770043453,-0.8850306803131032,-0.9778987896963287,-1.1048070312399219,-1.2950312523388463,-1.5556169961047848,-1.8603916258405166,-2.1608429795729327,-2.4105666913219586,-2.58336893454409,-2.6734467839778073,-2.6814818256878334,-2.6017032993325055,-2.4268445293489824,-2.169345948324998,-1.875182569883901,-1.6133812938525198,-1.4462582247912836,-1.3944113958244073,-1.415391450415155,-1.416418918681439,-1.3013841996176025,-1.024399796689885,-0.6155261760199637,-0.16434754654345668,0.2252043373678505,0.48225563331825705,0.5957500879785061,0.6111406436612555,0.6043908146455373,0.6472831011726876,0.7747242631881406,0.9649004072140682,1.1437085463612686,1.2189525899992684,1.1367031134185936,0.929267952515817,0.7135375568207956,0.6282238167265031,0.7474600585709438,1.0316515670260693,1.3515962764262126,1.567194973012113,1.604876783379379,1.484289412550491,1.2854472637284715,1.0893907541566716,0.9360560186705427,0.8214093624232082,0.7231988211207911,0.6260339037486587,0.5274375154261989,0.43083686608573213,0.3391006100108145,0.2530502616681458,0.17242516238355748,0.09685133634243734,0.026163601044441015,-0.03965741065615966,-0.10060589952317706,-0.15670405579238234,-0.2080000186161435,-0.25455104543046514,-0.2964126275253046,-0.33363517590700376,-0.36626375786872356,-0.39433777236755807,-0.417889912916853,-0.4369448550804906,-0.4515181005956259,-0.46161511846063435,-0.46723075097466127,-0.4683488294553011,-0.46494198246226337,-0.45697165521646543,-0.4443883622633241,-0.42713214367398933,-0.40513309398297526,-0.3783117983133453,-0.34657980510357067,-0.3098410538268027,-0.2679958316471516,-0.22094732248972646,-0.16860494382861319,-0.11087120609087374,-0.04760427082565064,0.02141119714253687,0.09638214040074844,0.17720681055821025,0.2631035198683227,0.35290537629262847,0.44659990229140695,0.5473555165318469,0.6622673021832388,1
-0.03497771594684554,-0.042069921088039086,-0.007896150143930275,0.05595517417583874,0.13171615807464454,0.2091471586267107,0.28806692647199184,0.370286278323121,0.44964850726021965,0.5097410204870354,0.5315543812672656,0.5037153350275392,0.4298924908414069,0.33075560663458625,0.23577422622400682,0.16898481568346987,0.1394217935922287,0.13931347646850192,0.14989580213925616,0.15415335396946453,0.14669614867834627,0.13025831152366002,0.10529840035491041,0.06736838024476702,0.014007268615077662,-0.04703936455784828,-0.09671085110036305,-0.11623715542432303,-0.1049577731615623,-0.0860174180745875,-0.09030472227346883,-0.1321510597686112,-0.19862331304357314,-0.2601587736652551,-0.2929633824991665,-0.2948606428780861,-0.28183754957550966,-0.27032845635519226,-0.26291880391037015,-0.25043300112815636,-0.22665167748444115,-0.19909562680708068,-0.18299239799527892,-0.18242441160320916,-0.17686272218104213,-0.12843326000079222,-0.006771622300162008,0.185369244400564,0.4016552046805961,0.5668191411353176,0.6132286256511945,0.5189862342805563,0.3238973222442609,0.11146234275064563,-0.03474624640332043,-0.07421497103471136,-0.02616964546383519,0.048997135910223075,0.09048510477082232,0.07356828344852631,0.019894099023381264,-0.022539835296545713,-0.014786514496505757,0.046559628573826055,0.1286622534098153,0.1866635708180353,0.19484787679027096,0.16202396178684808,0.12165259757827844,0.10557450327872314,0.12155247916674668,0.1516213407313158,0.16924833709300335,0.15735835243373755,0.11298184937948992,0.04188092611706456,-0.04456077102997534,-0.12755768673844786,-0.1821619384191086,-0.18709824777005754,-0.13892034346597137,-0.0586285881547074,0.01773131829926567,0.058561583193638606,0.05243217620461584,0.011273274448326874,-0.04047285790419562,-0.08193047252890154,-0.10323052711700409,-0.10267108611632092,-0.08279483618729369,-0.0507814611642913,-0.0204996803751553,-0.009477306603168634,-0.028431144779426393,-0.07117823601583952,-0.115050897456818,-0.13253439931086355,-0.10546885883089446,-0.033763297957627086,0.06234675259725297,0.14731912025638866,0.1866817728615996,0.16730809454425483,0.10314288392486506,0.022786197618310557,-0.04757626111174207,-0.09423838919787864,-0.11396150972691718,-0.10471837851893268,-0.062290307993118875,0.011434119370826161,0.09655631705441194,0.15605368939794695,0.157230159363778,0.0977279796470504,0.012147544150715804,-0.048600676252155986,-0.05290494893459276,-0.011657225102508051,0.0318327937536898,0.035938864236649444,-0.009877934525052805,-0.0813069203524317,-0.13998528884371905,-0.15976106578082508,-0.13922997394978653,-0.0957089339726922,-0.05107235526904249,-0.022408028735304196,-0.019206532773666997,-0.042099798339658184,-0.08252403183840287,-0.12626820405389794,-0.1604413240614725,-0.1786267254793667,-0.18090756745934283,-0.16972328910890028,-0.14564864053242876,-0.10847391685662511,-0.06237698532770204,-0.018508686589756747,0.00835830559933411,0.008619462087461408,-0.013754600500675868,-0.04318189753723548,-0.06506668808154814,-0.07644720068229446,-0.0842297527303236,-0.094342731091451,-0.10445435257877404,-0.10679928022215049,-0.09701466058009635,-0.08041418544793798,-0.06847038287426724,-0.06770670893319368,-0.07294238570774333,-0.07293290616445514,-0.061738908010215345,-0.04399832880639354,-0.031731716518127825,-0.03614784291284505,1
0.6258244143706804,0.5825444739834985,0.4563842624112797,0.2851850621016356,0.12813535420080394,0.03369839952699745,0.013189491740097932,0.0390403142467722,0.06835284190574906,0.07148044643765351,0.04324305610925914,-0.008327006814350193,-0.08055722732155512,-0.18110876403570733,-0.314379395760223,-0.46487087642532904,-0.5973998003411581,-0.6787118290233531,-0.7020409092486688,-0.6915337772589123,-0.6838031725778234,-0.7035010879479952,-0.7526588759946155,-0.8207601466845679,-0.901596197119691,-0.9976672374208434,-1.1128793141494597,-1.2485052815002846,-1.4048674117531237,-1.5769973247511315,-1.742054927089849,-1.853189900298567,-1.8550762424866283,-1.7208883444444527,-1.4855222070106517,-1.2390067387161348,-1.0734991835918364,-1.0224188016340667,-1.0450431121449768,-1.073908159897891,-1.077665591219836,-1.0711917390599002,-1.0609283216118217,-0.9840738994423137,-0.7144773994037963,-0.14949802786363314,0.6888015539357449,1.6273440533839822,2.42158204962053,2.8856856077336897,2.979702715637577,2.801477772473358,2.505429130291112,2.213069032137959,1.9731776212341632,1.7808718916682729,1.6154363363225184,1.4608381701357465,1.3093397473366244,1.1601099031886282,1.0157641117769027,0.8785812327493198,0.7492825891287108,0.6277220923923637,0.5136222770645663,0.4068319843980092,0.3072877719436444,0.21492579716826687,0.12964249729504762,0.0512971700460913,-0.02027364454385716,-0.08524602664030145,-0.1438043472777361,-0.19613943061323752,-0.2424468236244579,-0.2829246329927389,-0.31777123645425936,-0.34718319089780264,-0.37135344390897723,-0.39046982369701133,-0.4047137620367621,-0.4142592284423459,-0.4192718711093497,-0.4199083563366123,-0.416315881180903,-0.40863183201869335,-0.39698361877900934,-0.38148884355709145,-0.36225603241212495,-0.339385828873526,-0.31297154236509583,-0.2830969378196977,-0.24983069395951776,-0.21322422417973685,-0.17333003669956926,-0.13025386595130417,-0.08420531964345604,-0.0354178691425713,0.016218462829078142,0.07167494285749872,0.13307090227833593,0.20266123169915495,0.27900011026536553,0.352824044169516,0.40817133752836643,0.42850494523337374,0.401794496513227,0.3212520335266829,0.18674113014262508,0.01210894454909571,-0.16715422262445537,-0.29591855013970875,-0.3155341974781963,-0.19120884792826223,0.06176890161237679,0.3727946172799763,0.6426628359108358,0.7896495317505052,0.78749862823099,0.6719137551041957,0.5102046662762351,0.3559961208028211,0.22493659859222231,0.10560601760457221,-0.013956606170481126,-0.13000464008591867,-0.22552311181500953,-0.28407922829729043,-0.3026480554838518,-0.2932998134102768,-0.27300064349184844,-0.25383922342900955,-0.24342881099698943,-0.24877456496104103,-0.27425410304854103,-0.31427205486861487,-0.3486535554722102,-0.34962648240982164,-0.29982725563778356,-0.20845219748700944,-0.11115375178693462,-0.051380198163459255,-0.05527013115507766,-0.1157527404299609,-0.1958336869241145,-0.2500700585354007,-0.24939701265371317,-0.19350742257283876,-0.10751293071361878,-0.028917805374149855,0.007818251916341681,-0.01492911334200249,-0.08896252909516647,-0.18097955751057854,-0.2462499339873197,-0.25188124699431674,-0.197470624447313,-0.11785821344036476,-0.06285308083205171,-0.06644714972852167,-0.126048106148837,-0.20521028560764107,1
-0.25367928924229244,-0.2730149706359307,-0.2926632639162059,-0.3125273329594414,-0.33249818805996506,-0.35245407064715195,-0.37225985535097156,-0.39176647533404685,-0.41081037730710435,-0.4292130131556015,-0.4467803756262959,-0.4633025860519136,-0.4785535426284369,-0.49229063829993314,-0.5042545578424622,-0.5141691642574453,-0.5217414850756463,-0.5266618096561078,-0.5286039091146083,-0.5272253912122067,-0.5221682032584951,-0.5130592962610836,-0.49951146232204274,-0.48112435487140437,-0.45748570148560863,-0.42817272929872036,-0.3927538460953755,-0.3507906336756577,-0.30184015342226106,-0.24545738587682367,-0.1811974404209636,-0.10861742739720667,-0.027279161620002285,0.0632442381669307,0.16335536261233163,0.2734191020000389,0.3937715904386327,0.524780051603614,0.6669314816709204,0.8207926913851296,0.9865716513067202,1.163269385163306,1.3484193068753374,1.540692212129076,1.7456760134008522,1.978368124452339,2.25405855104221,2.5695587385093086,2.8883001821601253,3.1436584078987018,3.264173083889814,3.2074258894700094,2.9802429338829195,2.6335071345570604,2.2382867480876145,1.857519345810835,1.5258577818311143,1.2452825945006434,0.9943865964563858,0.7426447881354876,0.4642275418777685,0.15041797836088655,-0.18312213492204032,-0.5019709510015007,-0.7714834395661644,-0.9756540119197092,-1.1237439890487386,-1.2411069615326356,-1.3497749331473177,-1.452260265876835,-1.5292993321678514,-1.5502461005450052,-1.4896909657498487,-1.3440959277623505,-1.139569385069549,-0.9240758467990305,-0.7486132595973529,-0.6496700616369999,-0.6421952235606049,-0.7254656585316811,-0.8951045614883025,-1.1468145017567846,-1.4646609298623559,-1.8053149034575864,-2.0978401721237283,-2.267058456920768,-2.269131101751582,-2.1153307441822378,-1.8650663047592002,-1.592204815539579,-1.3490225112243261,-1.1510903904794736,-0.987183476890465,-0.8397536938931013,-0.6989192975219668,-0.5638131278967569,-0.43701770095380194,-0.3202609349713766,-0.21369130522666058,-0.11672632739686112,-0.028751190820731187,0.05068792068924721,0.12195107317698833,0.1853930754597885,0.24139587704474408,0.290362246200262,0.33270149255731135,0.36882089449561545,0.3991227959596282,0.42400373049572915,0.44385341123243827,0.4590532585263256,0.46997483339951307,0.47697847349268546,0.4804122017180691,0.48061086228445005,0.4778954302403677,0.4725724663403824,0.46493370672774226,0.4552557808702846,0.443800049102331,0.43081254911847877,0.41652404041490043,0.4011501362995483,0.3848915138697236,0.3679341929712482,0.3504498756379558,0.3325963379614608,0.31451786680728,0.2963457342750593,0.2781987032838098,0.26018355813760874,0.242395654389544,0.22491948277110058,0.20782924239024475,0.1911894188231935,0.17505536313109415,0.15947386822255977,0.14448373935544773,0.13011635592590712,0.11639622202921135,0.10334150359501997,0.09096455019939546,0.07927239993716721,0.06826726600122426,0.057947003860268076,0.048305558153785816,0.03933338863291239,0.031017874668895374,0.02334369802757777,0.01629320376923356,0.009846739278831802,0.003982971563001581,-0.0013208169327198552,-0.0060884536286737005,-0.010344621788639655,-0.014114626641154877,-0.017424181046952484,-0.020299210056688905,-0.02276567365468255,-0.02484940694500549,-0.02657597700528926,1
0.36156891702305055,0.31394366550045955,0.2589688143525774,0.19619476714740902,0.12517751989497952,0.04549069072461908,-0.04326710976391989,-0.14149296508111273,-0.24964488569862256,-0.36830010657104184,-0.4980285273825286,-0.6388765671474179,-0.7896745930807316,-0.9484203957249192,-1.1152263242653921,-1.2966448542522566,-1.505939275633499,-1.7537365880806095,-2.0319391347669846,-2.303864858628582,-2.5126554879141296,-2.607362020502156,-2.5718451942284157,-2.437114099618896,-2.267554344175337,-2.128539861307485,-2.0559820651540033,-2.0469555992024064,-2.0735140660182205,-2.1052563550028105,-2.125189303832837,-2.135169270279225,-2.156003289632161,-2.2204374898124106,-2.347631686543025,-2.5042734702240614,-2.587616570739776,-2.4619747113292267,-2.040273701420037,-1.3630297914106633,-0.614000598036267,-0.03495224393047058,0.23457558959513225,0.28488203667829126,0.41257859730713087,0.9366888124180939,1.9749358912503188,3.338700780441515,4.628216260671376,5.46462904727149,5.695712916508223,5.443788502557618,4.987519455813976,4.577242643279851,4.307756236201189,4.116845741149162,3.885846838235003,3.545012561460462,3.1045458503414243,2.622635754844849,2.1620066574390733,1.7616428974522975,1.4290182309149453,1.1491358079690959,0.9011369648236175,0.6723663487612467,0.4626382674295366,0.27957434632932476,0.13147591348971033,0.02142604260001446,-0.05586464635828381,-0.11203800646292217,-0.15873042321562314,-0.20238947851280376,-0.24396085373780485,-0.28205134051162384,-0.31677034469688126,-0.3515334806873178,-0.3909521085732106,-0.43753931926699563,-0.49135176335587794,-0.5521486409506999,-0.6212335896460737,-0.7009696980916682,-0.7915331076029992,-0.8873696710686592,-0.9782633373457542,-1.0559584627335736,-1.1198879730811102,-1.1763196758774617,-1.232188886651765,-1.2887105894935147,-1.338929016831429,-1.3706821335739994,-1.373120023306117,-1.341815436591026,-1.2794582297682877,-1.1936676234844112,-1.0940082126648922,-0.9890358138396982,-0.8849727567070477,-0.7873936148267374,-0.7030565280517441,-0.6378082999571122,-0.591034443914736,-0.5500168495799747,-0.4887365837167449,-0.3754784896598382,-0.18887128052810015,0.06430467466492615,0.34075652762988556,0.5719666447284392,0.6937560579328714,0.677631356394274,0.5447954061502691,0.3551294255418994,0.1781571169602357,0.06324376666441672,0.024853157913058047,0.04749027870565699,0.10368976596821246,0.17158994778774744,0.24172535653545335,0.3138500073646213,0.3905743369040611,0.47241775025316096,0.5554492200383689,0.6306159478839511,0.6847766734000912,0.7055030203071717,0.688583613435895,0.64178965647581,0.5802522425384603,0.5168466439809235,0.4551617660736875,0.3903611832698243,0.3174215831913143,0.23695096730792942,0.14465429964260865,0.0051216010576698445,-0.2633103659323806,-0.7573100797684237,-1.5055257538712292,-2.384437893786638,-3.1137966462457567,-3.3700774799506283,-2.9655746123022486,-1.9762560326453138,-0.7219397062306017,0.39643542375425644,1.0932825336077205,1.300720526030855,1.129083410993319,0.7438360263233554,0.26220465138986343,-0.26587129596560277,-0.8053647077854353,-1.2799565950200293,-1.5719890162221934,-1.5798399785543225,-1.284411338573746,-0.775700592931008,1
0.06934135621463763,0.07014558162384554,0.06425637928085948,0.05401791283969051,0.04490901557841409,0.04207788304829051,0.04755346441949259,0.059792457600318025,0.07513660051676094,0.0899315250813667,0.10176255410476517,0.10927044698815369,0.11161760272160691,0.10832182376775323,0.09938181630878326,0.08571665975540281,0.06928349205575904,0.05208862978301143,0.03490415294668328,0.016763149630782043,-0.0045697571541980266,-0.031202570596646283,-0.06383071092247525,-0.10167842713933753,-0.1431578669554398,-0.186317660405735,-0.22924385977810996,-0.2707155021552351,-0.31052467505433834,-0.3491040376248386,-0.386726309138881,-0.42245102521178557,-0.45354270183762135,-0.4765462853379035,-0.48920846542849067,-0.4911067259674447,-0.48340291821427517,-0.468623925221147,-0.4491571981065344,-0.42541926007208664,-0.3962961995242384,-0.35997430957967325,-0.3123080452911858,-0.24546950681918886,-0.15067407378739608,-0.02410382251594846,0.12690578801706565,0.28180535228272885,0.41342604647318626,0.5004571341340298,0.5370924631289317,0.534330897280736,0.5130756925693266,0.49350025182027746,0.48719256215337714,0.495065515860339,0.5094731736722007,0.5187327330402156,0.5125695987974916,0.4860231978733085,0.4402763916563915,0.3806551221824267,0.31266146216566315,0.23888608367999947,0.15988632391351287,0.07780115330576452,-0.001356683323156034,-0.06987671009695393,-0.12384821475221856,-0.16625034463034472,-0.20395934789704187,-0.24124664855944702,-0.27550529734001694,-0.2991657112330142,-0.30642946729097903,-0.2990431042130732,-0.28603412003603157,-0.2774018327796627,-0.27727888629668684,-0.2820708976285929,-0.28393333626681466,-0.2770184168458412,-0.2627320240936889,-0.24901566703249223,-0.243105464325823,-0.24403194709767442,-0.2410550500767766,-0.2193552769464263,-0.16952556556047468,-0.0942360632657641,-0.006798785117115278,0.0771222317490357,0.14745258735833242,0.20189268771741115,0.24344242228171506,0.27640946276928924,0.30303025011328144,0.32302187680456995,0.33592147214965606,0.34297655998675153,0.3466951853460271,0.3485607624089351,0.3469517538290495,0.33776439757797677,0.3177037583567003,0.28717730689805027,0.250361242438793,0.21269516601881905,0.17781825888378086,0.14600944535626903,0.11439056213066146,0.07917814211177825,0.04013681326299667,0.0032514351661615537,-0.02219264388988485,-0.029662950924428853,-0.019952824833751673,-0.0019030991753412815,0.011727924951225065,0.011909173088512776,-0.000491736205369582,-0.015479051828400349,-0.021880339842444724,-0.0158997475611875,-0.002920056064516778,0.008097941124433752,0.011281504376658924,0.005417431501784534,-0.009363826391826244,-0.03404802369312818,-0.06778613944773876,-0.10089911305510917,-0.10938282344069933,-0.05833708273180027,0.08080577979846662,0.3057831355024208,0.569061404663647,0.7873421710691793,0.8742331539827367,0.780482402395033,0.5191138383509584,0.16023275462702027,-0.2010221158704602,-0.48418810507525134,-0.6494198317531966,-0.6999613173682953,-0.6667200163670715,-0.5877780107834245,-0.494074698903503,-0.40519617536783153,-0.33090291062546623,-0.2727174882149243,-0.22564356663218593,-0.1825089944452217,-0.13950195281220157,-0.09907729664553738,-0.0683776054236771,-0.05464406910967816,-0.06080385628143013,-0.08349434829298233,-0.11454963962175542,-0.14583411424027443,1
0.3447295938968896,0.32357108455242056,0.2994435079252896,0.27475720416857563,0.25080456147792296,0.22591489352820204,0.1951891534597253,0.1520823356182691,0.09026018015882813,0.006125480445808115,-0.09767060610824554,-0.21111042654582182,-0.32046337565173333,-0.4141233564040639,-0.48713256081321726,-0.5429420590524735,-0.5916734448712881,-0.6453128045938332,-0.7123267138233176,-0.7942580732811537,-0.8853200705506102,-0.9749115269193609,-1.0521360720820363,-1.1104667280126652,-1.1504571472528755,-1.178376201126152,-1.2006250138682077,-1.2182622150887887,-1.2255685249414257,-1.2121187214206632,-1.1674607658402723,-1.0872552316720574,-0.9759810592572947,-0.8426691542230136,-0.6937338740117369,-0.5298584929897568,-0.3489700176855576,-0.1522398300117145,0.051370694636028974,0.24617952373691881,0.41750743402721757,0.5609561188187144,0.6856818818562647,0.8086423747650431,0.9434127629502665,1.0910837831559377,1.2393932339348648,1.369722126762408,1.465927260916994,1.5193150166091225,1.528442401937426,1.4956011512013372,1.4232089715900773,1.3138330074604243,1.1736657520619302,1.0155331563194854,0.8591411389083156,0.72698005953376,0.6358933946240206,0.5902377805048671,0.5824348148683073,0.5990273519296392,0.6259853036309293,0.6499774647365056,0.6584017180464993,0.6427015834319698,0.6049147781249635,0.5608894901303387,0.532400895269223,0.5305157879109694,0.5440046719398831,0.544391385776777,0.5051275556386091,0.419878079201034,0.3062788496836272,0.1941005643499899,0.10729149764950077,0.051406274678314406,0.011718976082390309,-0.0402667453019718,-0.1354005579671278,-0.2924010216144889,-0.5037388873994122,-0.7304195747496401,-0.9162700694342225,-1.0195809678844459,-1.0399569509970297,-1.0168350549125584,-0.9984255439950567,-1.005574978703803,-1.0200467682455203,-1.0049757851362644,-0.9383470465588168,-0.83199081818708,-0.7234521389823071,-0.6512575500648997,-0.6338314619012517,-0.6647926351671513,-0.7234021174261361,-0.7881560115882809,-0.8429774260487785,-0.8768023764759987,-0.8829753082499896,-0.8606682673346628,-0.8163713440416086,-0.762830401456651,-0.7142055521101386,-0.6792875424662588,-0.6570190920692403,-0.6377193030326038,-0.6084487838658235,-0.5578008010765321,-0.4784628061972145,-0.3689674324882624,-0.2347005094064221,-0.08643382886361423,0.06321778744670714,0.2029280873853724,0.3254505429409654,0.43041343986893654,0.5236396343319727,0.6117159021029057,0.6964113371461372,0.7729411218425147,0.8325368639687003,0.8681417247082606,0.8794808878791578,0.8731187276399096,0.8577601966712342,0.8393014696808544,0.8193600198446596,0.7975760028049949,0.7751337453616486,0.7557418159914758,0.7426565098593059,0.7352432155203451,0.7292985515109303,0.7202912350930808,0.7050837380252084,0.6804859494187488,0.6413687194850255,0.5811179949226074,0.4946633944437732,0.38177451584110145,0.24746570531172624,0.099271202169039,-0.05581450039895908,-0.21217917625660282,-0.3633028459379565,-0.4982494444028738,-0.601293067526637,-0.6566963691611127,-0.6561166093246029,-0.6036540284850955,-0.5141551515308372,-0.4063071565504756,-0.29648574404168215,-0.1961080856854871,-0.11201444794868645,-0.04809114679950798,-0.005922497761769032,0.01578109655556269,1
0.054648619047424414,-0.019875547888710557,-0.09608987105351863,-0.15445233296265032,-0.18415542051100145,-0.18942895138376553,-0.18624830435523362,-0.19101284619197462,-0.20975269694424795,-0.23509678795521796,-0.25182086000588516,-0.2464682258841743,-0.2142709100300727,-0.15932619991079977,-0.09053623031898259,-0.018131437626299103,0.04803717417481618,0.0999902134811573,0.13404983947820298,0.15317150006532454,0.16666059806582026,0.18638102776841314,0.2211794471282537,0.27311399348673854,0.3384632587962205,0.4115660562267951,0.4867112179928368,0.5572589103324199,0.6149530096185845,0.6516389864900629,0.6634657506585923,0.6551038263266469,0.6398759012342659,0.6343870573129307,0.6508577100526631,0.6920777518472563,0.7530709340747926,0.8298020970218719,0.9267189606308881,1.0499089176496246,1.1857108872179603,1.2874364017706752,1.2925902646481096,1.1655060271293545,0.9380154622958877,0.7179273582803356,0.6479324080660112,0.8248900908564468,1.2190076145271027,1.645942424781267,1.8279591719362576,1.5301071391493162,0.7001162774485172,-0.47843609854168423,-1.6644560090096725,-2.5283912321199944,-2.9104506903853355,-2.8738076546816593,-2.6269355154284963,-2.3766070922481846,-2.2164023819068626,-2.1165356343883936,-1.9966610019267517,-1.8082589481091278,-1.5647052647885868,-1.3144241263160887,-1.0987871891100578,-0.9322904600153799,-0.8088758554465043,-0.7171999644884558,-0.6477072150797023,-0.5865019957820223,-0.5062858610362069,-0.36859045251014433,-0.1414863275965308,0.17599177828444412,0.5383768299618722,0.8605030948580705,1.0490251694501875,1.0455975624318665,0.8576495391273871,0.557527763911854,0.24920440463766924,0.02099305242607985,-0.08957348567480222,-0.10074585135598657,-0.06319316560048169,-0.027030590456476516,-0.019273915276145304,-0.041220786631338296,-0.08139076758422034,-0.1295612925956855,-0.18127577603451622,-0.23471050733608584,-0.28652050352022007,-0.3304858228133823,-0.3600248610586941,-0.3724044437001186,-0.3706040664161309,-0.36067906886570394,-0.346281103335251,-0.3252546416883111,-0.29128230638615077,-0.2387582874194899,-0.1682573451718282,-0.08911272319096385,-0.014697793147135776,0.046929244005673304,0.09754928484773577,0.1449112127909603,0.1959945902893664,0.25286192920202877,0.31278609887141334,0.3720254028082584,0.42977403655437013,0.4887606578735387,0.5525059165893181,0.6217539369429305,0.6932069303244418,0.7620711870776272,0.8261076874500247,0.8865232605508966,0.9444636724627661,0.9978086200274998,1.042157711826643,1.0748363303756283,1.0984811862814623,1.120343149162315,1.1471076673941183,1.180105802001774,1.2141569771990042,1.23980663839262,1.248002885687013,1.2349209647480393,1.2032103289620086,1.1578926154933677,1.1006636680988604,1.0277621743445655,0.931828801030984,0.8060590541231957,0.6487604669229147,0.46448856326669485,0.25996143389444626,0.03929230819047669,-0.19511747130759738,-0.4369802209579785,-0.6739613647150466,-0.8924354042951665,-1.0834671411904317,-1.2445670518965557,-1.376987092975793,-1.4803158667870855,-1.5486083554449852,-1.5738498390103732,-1.5551551743818819,-1.503781923253147,-1.4381696056762678,-1.3733110272430524,-1.3129464897874237,-1.250420884408551,-1.1769849518189335,-1.0897323676953572,1
-0.8650048522308622,-0.7847631037454699,-0.7391973010568672,-0.7248495466271491,-0.7355102067798927,-0.7641307413925502,-0.803656027929602,-0.8470831952122665,-0.8873444734867181,-0.917642984586781,-0.9323874277705552,-0.9271469169088858,-0.8976902285406656,-0.8408684874934135,-0.7581276403155583,-0.6590938599073048,-0.5620286598131826,-0.4895819223712663,-0.4609334677024234,-0.48378343046843364,-0.5509693508251761,-0.6444511743572627,-0.7442272490969104,-0.8368444675916344,-0.9192764132943012,-0.9963971426316662,-1.0733968705609713,-1.1487910095898792,-1.2144681958513235,-1.2625001757961742,-1.2919533747657543,-1.3101307686407813,-1.327559192081988,-1.3506398130974548,-1.377709978341009,-1.3999888431006944,-1.4038847737109044,-1.372261953586397,-1.2858952788731557,-1.1274601743700003,-0.8889509280383494,-0.5793667525275521,-0.22586531791217207,0.13736723526226086,0.4930327996464253,0.860957383054442,1.2824805228782394,1.7675946398449276,2.2525013144862105,2.609726469215797,2.7100580017191147,2.4997644843226294,2.040918985827289,1.484208724195733,0.9928180708190136,0.6693268260645864,0.528444958634251,0.5215725024421874,0.586351988515992,0.6830154209402144,0.796475962213069,0.9199621243757438,1.046866624508264,1.1710748062456222,1.2863252813572088,1.3872749766454322,1.4726261275725046,1.5440671022881813,1.6009945815105373,1.6374862947683415,1.6450775076650053,1.618856842753586,1.5617102686611437,1.4833102322914367,1.394652936083445,1.3023808821798473,1.207148507837364,1.106200021013636,0.9972608534272356,0.8814209153648334,0.7629751769414121,0.6440141897640479,0.5157813625935102,0.355242904526639,0.13370208086252516,-0.16560847264663664,-0.5325273775826007,-0.9291969258914368,-1.305437737570427,-1.6205064340542545,-1.8573165079931693,-2.0208350334828946,-2.124734853117541,-2.1786912153891067,-2.185125223455824,-2.145392189349433,-2.067981794990847,-1.9692088131567629,-1.8653486524357803,-1.764700729005585,-1.6660640424715722,-1.5626568067217108,-1.4472831799762738,-1.3162673369515625,-1.1711968584378416,-1.0171038893911521,-0.8586024473957924,-0.6981732793461721,-0.537394472566666,-0.3789599238231775,-0.2278955493902738,-0.09092191104770997,0.025841776951559314,0.11905361537060083,0.1886337954458383,0.23643026829434077,0.26474074999361596,0.276416727456908,0.27571920053581467,0.2683540986822169,0.2608051725213393,0.25900841287376747,0.266371489588477,0.2823013939966112,0.30246088111642255,0.3210392254342633,0.33361990890658966,0.3389410482063523,0.3388121618100526,0.33635887699760664,0.3341377788679247,0.33311840437843526,0.33243810389014716,0.33006309110125615,0.3239410948050799,0.3130772962138547,0.29858581036006415,0.2840197236625562,0.2741094983699861,0.27286702970616433,0.28279540530214625,0.3052959315023167,0.34039112209495037,0.3849507310111156,0.43212452445737654,0.4739354642384683,0.5043486309833615,0.5204278419530759,0.5227534512406239,0.5154802401686683,0.5044736661317455,0.4943259998608449,0.4870588598322067,0.4823951064961976,0.47785790466402717,0.4694765000559252,0.4537726088307074,0.42961687791516945,0.39887094015771024,0.36523736314669875,0.3318646765834182,0.29966289006840896,1
0.05421583237836432,0.05507283057469812,0.053262965107671534,0.033761314504191356,-0.018937991247476714,-0.11459931338694779,-0.25231585808557483,-0.42043723659407234,-0.601271122223665,-0.7770445921228983,-0.9335310613693453,-1.0605360731452917,-1.1522342170790651,-1.2098689978425918,-1.24381676225764,-1.2700623386192957,-1.3005581100974064,-1.3332875163741493,-1.3508632837549686,-1.330586263966774,-1.2588678675144411,-1.1406319549239723,-0.9986286277311102,-0.8627009300645576,-0.7552657464922509,-0.6819367062312799,-0.6324452912335017,-0.5902216298460305,-0.5430476579495138,-0.48776531716784477,-0.42715576397340127,-0.3621434238153539,-0.28710514825621997,-0.19404403662807054,-0.08237533278556058,0.03503326034334145,0.13732452295039166,0.2107132787272744,0.26021382807199356,0.30577458315614353,0.3636719801830103,0.42855879227163085,0.47653176675909314,0.49447036279907475,0.5113548459375514,0.5949033043167647,0.8040504326506065,1.1316437101987793,1.4869763082295773,1.7388659567975302,1.7934508013673802,1.6538818020234272,1.4195812278642583,1.2238750358991541,1.1531001307274344,1.2029103370708685,1.2962467569255514,1.3403065014691011,1.2779955808765133,1.1058145782972144,0.8632782406073924,0.6129659541629776,0.41785557515697697,0.31558219317576586,0.298855507587082,0.31601238346816374,0.29688276944407865,0.19444622199722192,0.018872514603039653,-0.16354935180973015,-0.27382380165858927,-0.2770594149048284,-0.20854847012317262,-0.14792924767627894,-0.16181296109106333,-0.2607857154660356,-0.4019360959245645,-0.526439991357833,-0.5962400816499388,-0.6063470036075868,-0.5754284870938108,-0.5288555193115246,-0.4859736911429577,-0.4559115223735391,-0.4388105516140246,-0.4279877396249623,-0.41337667979899245,-0.388380217390662,-0.35676586416856637,-0.3333634227468808,-0.336893229611475,-0.3790872800875734,-0.4575969073225161,-0.5577424521395695,-0.6604988823812223,-0.7501289918525221,-0.8184521980329359,-0.8661813133964852,-0.9005740710127758,-0.9297011447462805,-0.957812446617387,-0.9851534418069958,-1.010656130137271,-1.0341689431295433,-1.0560474465732888,-1.0749281853069965,-1.0872475701178763,-1.0903113363285277,-1.0856144535575054,-1.0772846528464095,-1.0662598560734948,-1.0464130924935675,-1.0062485127324774,-0.9354437913188675,-0.8332798266971929,-0.7123091479259598,-0.5917220365100814,-0.48446421682496466,-0.38743846939008186,-0.28076901513042357,-0.13758867287454993,0.06017454892614954,0.3099566491104001,0.588488064334492,0.8626038757527119,1.1035104214963574,1.2973909574547546,1.4477129390133918,1.5689682388448034,1.6775289778592084,1.7849282078070288,1.8949069053620924,2.005218357973789,2.114525502345542,2.2321416842316166,2.3869999963621757,2.6298682775183444,3.01728259147535,3.568638544444435,4.214040107552174,4.778371120772459,5.036752663259022,4.827788438423512,4.15911731666937,3.226064218794521,2.312343494627189,1.6274041109719106,1.1890908171265477,0.8333786127442563,0.3456173316593366,-0.37832418667948153,-1.2550035268015851,-2.0697507250182956,-2.6164083192153975,-2.8194643064998486,-2.7653988017627915,-2.6375521415568417,-2.604917314939052,-2.73487650220419,-2.9763211163819725,-3.210570732190967,-3.3283079869305294,1
0.08430477582689777,0.07924007009251338,0.07621435012862357,0.08382573926078556,0.1041132796431554,0.1324708806112028,0.16171768147762097,0.18674683205848217,0.20623347864639052,0.22086555930377108,0.23085959164434966,0.23551847148700614,0.23498024011166982,0.23175940357991381,0.22953620686917,0.22994330494197748,0.2310235063294508,0.22945130373039097,0.22411174059092465,0.21677582921043353,0.20935741599801877,0.20095186317502461,0.18682267561457816,0.16039884695444526,0.11821755942233775,0.063824450966819,0.006726192330027317,-0.042268576658453044,-0.07614384999684723,-0.09522021521292373,-0.10667087124753102,-0.11959788829834453,-0.13965800867570688,-0.16655200946315027,-0.19452317700179456,-0.21537904853347917,-0.2231524767471943,-0.21812186912716697,-0.2074610243646436,-0.20189485209136415,-0.20997814218641353,-0.23195599221123273,-0.2562130091482104,-0.26101973584004157,-0.22067048373038833,-0.11374509911921009,0.06701937445458124,0.3040202638837054,0.5487392410193502,0.7294461044063828,0.7757970340174707,0.6522498654383494,0.38285432729535773,0.04765830303427589,-0.2532141667892751,-0.446846595623308,-0.5165164090711337,-0.49607613096379344,-0.43745650174991635,-0.3769408291393913,-0.3231221594478023,-0.2687007905204493,-0.20938074084305994,-0.1522211232545205,-0.10966004047150976,-0.08879865409067463,-0.08652307548792315,-0.09241695239479496,-0.09518900279920271,-0.08782914591571947,-0.06912909482139853,-0.04287252963888845,-0.016098388345355888,0.004380814692319185,0.01582721194725014,0.020050226482406057,0.020496900630416717,0.019415521590103013,0.016728595558134426,0.01076117978412355,0.0007062568766712796,-0.011175864397000378,-0.01975241108321206,-0.020022528110765086,-0.011341878048165287,0.001392675029059192,0.012025601615887404,0.01853779350441513,0.023449849517759507,0.0296616680843387,0.0369913601387165,0.04270246915588047,0.04525356322495418,0.04696016730784563,0.05204395684475079,0.0620765964648772,0.07319749584948144,0.07726310864732296,0.06649963630960551,0.0392667711160088,0.00263319924918759,-0.03147129997340666,-0.053621731166724106,-0.06127434331682996,-0.05752405873285965,-0.046814790910171246,-0.03140039949530762,-0.01076481856414719,0.015556572806601342,0.04416409123580122,0.06766253991401225,0.0794738760385017,0.07917282871608909,0.07297130281996848,0.06848795743732636,0.06918292273889284,0.07391329798050353,0.08041622991929301,0.0885661335272116,0.10037137104257733,0.11588893889029396,0.12999850849219144,0.1352140491132769,0.12765290678785587,0.11001105640735094,0.08896721609813917,0.06957748308792337,0.05217173006533901,0.034012828452285156,0.013231200959593448,-0.008509695428487469,-0.027128701186742078,-0.03997245501940233,-0.04813926999567783,-0.055482230278251284,-0.0656743873199715,-0.07939785258117207,-0.09439786616440209,-0.10823352930262477,-0.12023088872296403,-0.13141532707661843,-0.14312653644378642,-0.15520831111863173,-0.165654110389979,-0.17236263344274272,-0.17523786242624823,-0.1766228135379324,-0.1796845004717521,-0.18621949919301403,-0.19616526786502061,-0.20884697406226532,-0.22297361944132008,-0.23487274033772085,-0.2385658688463949,-0.22955990928262454,-0.20916673410870099,-0.18457928880694724,-0.16431967811382056,-0.15285878400959077,-0.14742231700708594,-0.1376007371361612,-0.10655259324713912,1
0.5654559305733015,0.5329983482324779,0.50098845622526,0.4718794725946262,0.44511129103585045,0.4188237985355616,0.39209756166722975,0.36610665602647297,0.342717462226856,0.3220687560831413,0.30168063897302044,0.277665386537384,0.24645586796265662,0.20516978450380757,0.1513119925586702,0.08367571985015068,0.004261680225782993,-0.08025161423765545,-0.159205946702012,-0.22330747347520238,-0.2748298446879529,-0.33647534239742044,-0.4485583896481251,-0.648866869119499,-0.9419196308746074,-1.2756329542453442,-1.5461371936586985,-1.6377078409319608,-1.4768932878257885,-1.0650606742911741,-0.46973445920576173,0.2119660255735183,0.8826255685558622,1.4432169992260713,1.7757934059141445,1.7492884062642176,1.2719057167480892,0.36831341141503665,-0.7780269511571246,-1.8659767473324207,-2.592278192212609,-2.777475852031503,-2.4277228080725544,-1.700698415781768,-0.8077642957761044,0.08066114105522705,0.8745821176766346,1.5416082538572948,2.0563604780840086,2.3697623073580045,2.421462844425938,2.1812091851466278,1.6868165097424657,1.050405115647513,0.42458501972645585,-0.05299450758714668,-0.304872316438058,-0.32569259934589895,-0.16086260333172342,0.12690869950276193,0.479226751247715,0.8441518215885904,1.1703358862200348,1.4079232987219634,1.5184114897412,1.483791474568875,1.3061184186719872,0.9998450447086886,0.586425137699203,0.09588686722239437,-0.4288021253633524,-0.9329062492013522,-1.3612200003009023,-1.6746530807134303,-1.861425319401415,-1.9360188441070125,-1.9273769573248618,-1.8641756015733628,-1.765707320560375,-1.6409541194108705,-1.492486541271741,-1.3213268961970013,-1.1314236360478167,-0.9333601963134145,-0.7448625274252882,-0.5858207977522784,-0.4700557283515644,-0.39917486167153404,-0.3623166175359158,-0.3412498478596845,-0.31702500729936056,-0.27515934549287135,-0.20867923980401787,-0.11890688796314158,-0.014611879185797205,0.08960440681947049,0.1767283177571355,0.23363050057961923,0.2579344997185567,0.26057269828068164,0.26093353922879947,0.2766851341948272,0.31410138324952497,0.3644632083159194,0.40885652876537343,0.4286709029206177,0.415801084039811,0.3768923246340122,0.3290254721444988,0.28984282562297836,0.2693842868614007,0.26899266116537773,0.285936246052128,0.3175441822642227,0.36142173784163023,0.41425381789869564,0.47177938371027234,0.5295613239890866,0.5842935272726887,0.6350196442524054,0.6817810617925217,0.7217961528699006,0.7480408561954248,0.7529425539972053,0.7339027441097034,0.6961615121998598,0.650912309263496,0.6096381045697823,0.5781818603698818,0.5548897935294843,0.53473149971915,0.5151410320276717,0.4978326894786007,0.4869774828124381,0.48672511906112725,0.4991438233501687,0.523665048184001,0.5577446049077731,0.5967988310176676,0.6335431353573242,0.6583777007925746,0.6616537721176171,0.636752173970757,0.5815178747153776,0.4970232182741355,0.38542026748788577,0.24942647256908307,0.09384703445826231,-0.07375013003380071,-0.24706337098686895,-0.42921604017365705,-0.6379974899854673,-0.9003623410642563,-1.236024222477222,-1.6393721053477925,-2.0716350288302006,-2.469925339928839,-2.769250790160713,-2.9246994681623812,-2.921755003230299,-2.7724478015429983,-2.5050168087945766,1
-0.0656071374880774,-0.16346990485283194,-0.2841585714613407,-0.3757234881120687,-0.3888138174516586,-0.29755768224396845,-0.11430295242177851,0.10644277040596747,0.2789953263849733,0.3132699917481377,0.15351044681761367,-0.18632287156440136,-0.6165213691716029,-1.0082274633422341,-1.2535614259221648,-1.3122692645484384,-1.2199971107731258,-1.0583530150221272,-0.9081440324003249,-0.8145503584087412,-0.7800758113801726,-0.7802031498478762,-0.7857946773005577,-0.7774784525269208,-0.7444661530310532,-0.6725280200792244,-0.5378075358945494,-0.319657134562355,-0.025512923525511225,0.2954038800019613,0.5680622135345335,0.7342503628886572,0.7944434383443657,0.8130022938047489,0.8755505201246077,1.0291788352609004,1.254635875874713,1.4940680222928808,1.7070541060658593,1.9007073681247486,2.1058497286966578,2.327033582244905,2.522473277472553,2.6378044998197914,2.6622697454047097,2.6551313653446336,2.7152384330573995,2.91145803488055,3.222491240486934,3.5293345388238633,3.6659937985843314,3.4950062972310616,2.9637012710166926,2.116229801337319,1.0662309284645206,-0.045623103364964834,-1.0866618131051577,-1.952702855254591,-2.578331803896282,-2.9416210090861337,-3.0641892453697097,-3.0051575199131824,-2.845775439659028,-2.664354984730251,-2.5123230379003707,-2.4059947494106817,-2.3361876677170375,-2.2858529383993176,-2.243983070989978,-2.20909300615552,-2.1844413958636375,-2.172272491265169,-2.1713846489249495,-2.1784545416210004,-2.1933070926067066,-2.2256095837246432,-2.294311490205277,-2.4124889425395133,-2.5641623389145027,-2.6930469184806474,-2.7191646600432846,-2.578283486910227,-2.259712649493801,-1.8154481683883872,-1.3306341306639071,-0.8744613899722016,-0.46786218849127603,-0.08921099930309251,0.29282844974811506,0.687957683774006,1.0757425615948701,1.419994155338843,1.6893108680931412,1.8680697383936546,1.9565543792361861,1.9680844309136585,1.9261884831133813,1.8587887360880773,1.78962552044978,1.7311808701300544,1.6835062406693826,1.641569598751638,1.605693055853858,1.5842128793019972,1.5850549222361792,1.6034215952967905,1.6168224304706398,1.5935185131357759,1.508423446566936,1.3545458364100087,1.144333595063444,0.90422994466983,0.6675504978576561,0.4665756553739083,0.32225004485707165,0.23435645051510673,0.18069841578574464,0.12917142348950594,0.056248654066283876,-0.03927075695351734,-0.1366509410703164,-0.20813377747434747,-0.2365609070304331,-0.22233656831259674,-0.17837664306586004,-0.12174413263472911,-0.067816153453853,-0.026512941544878127,-9.931180668118489e-05,0.0166928523851535,0.03404434662536185,0.06170855897652791,0.10280061333683804,0.1513385480848169,0.19523414951268547,0.22156704599887034,0.22144506544014148,0.19365605405821534,0.14555744093688971,0.09019622231242808,0.04092924962913051,0.005840987459060365,-0.016024959502473735,-0.03448659407023673,-0.06258742443117433,-0.10822819194030088,-0.16969604928731113,-0.23866902894135789,-0.30636756351768435,-0.36675029238179924,-0.4163892411166944,-0.4534694829804389,-0.47751388539724116,-0.48991902228696305,-0.4937268202750287,-0.49238455535203457,-0.48872731518192636,-0.4849769638964658,-0.48439303215438456,-0.49275363169941977,-0.5157237599902743,-0.5532793863624097,1
-0.039517487352111615,-0.045279974394638725,-0.04859754926337931,-0.04876930896195595,-0.04600016595824182,-0.04145938347554166,-0.03703505213127724,-0.03410583833195457,-0.032642861701027016,-0.031917415349006814,-0.031506763783294964,-0.031093654815009086,-0.02946839329930366,-0.024405006498354354,-0.014548827228837748,-0.0012569107413078788,0.012570970032143539,0.02504440209543402,0.03601260138395483,0.0462726492879048,0.0564366474613429,0.06594126700771956,0.07283220585712354,0.07450095214603758,0.06925785584485605,0.057734739173307945,0.04278895009326111,0.028008435966394463,0.01587353581127461,0.006827404419186182,-0.00021978646444627617,-0.006741180443677016,-0.01380673104403867,-0.02159929684213919,-0.028991403413387063,-0.03386160090729495,-0.034127291800822294,-0.029294900619599076,-0.02270082082310474,-0.0226700712572723,-0.04022596868856271,-0.08271393124842691,-0.14542745401723384,-0.20616688638447428,-0.22710381584883949,-0.1652287326061586,0.009860835519528849,0.29427510888505437,0.6338057722100146,0.9295911311079554,1.0733334906172398,0.998276944821666,0.7170339426644752,0.3207606448623313,-0.0636712883167603,-0.3328848021017823,-0.44669545961068774,-0.4298222564213431,-0.34253789321639383,-0.24274788104340675,-0.1629945717912168,-0.1111731703257111,-0.08365887024231139,-0.07492039168664541,-0.07992630928433861,-0.0940992479697538,-0.11337274751046919,-0.13441432292248678,-0.15501747187169634,-0.17423237429776953,-0.19173094924804882,-0.20671468387666922,-0.21717525423653883,-0.22018429667815256,-0.2137110851220169,-0.19870255155706862,-0.17885033955709032,-0.15827751579054236,-0.13979168075255777,-0.12444022111870519,-0.11123089174960717,-0.097634791326578,-0.08196359902410927,-0.06499391578071831,-0.048684448205300296,-0.03470882427463185,-0.02424348487247542,-0.017398454507069575,-0.012966365327571332,-0.009563479841569161,-0.006742862032414254,-0.004984428530029214,-0.004726585245791982,-0.005173339824007528,-0.00445679748030374,-0.0011853920812376212,0.0049687645729986005,0.013609818225286549,0.022989440236589123,0.029900337976069738,0.03171863340687987,0.028580203256306457,0.02356731525979293,0.021067429664936358,0.024727136030278173,0.035710715526882,0.051836173305042865,0.0687614820844158,0.08250904276718954,0.0910978812346796,0.09449986107121609,0.09379548196421003,0.09060719070453946,0.08723858532705181,0.08672657528872789,0.09147300618610887,0.10107314810633236,0.1119603818874789,0.11947404105728099,0.1203272697081396,0.1143216741066738,0.10476444348990938,0.09640937759289722,0.09184083838003984,0.08967549284279157,0.0859030695726163,0.07656451699537553,0.059765601031709054,0.03622616810477641,0.00886799241902773,-0.017750163947945343,-0.038828588205948755,-0.051974357464189685,-0.05840766792469344,-0.06124935010782602,-0.06340333480795193,-0.0663504673545465,-0.06945041951256316,-0.07066163831767791,-0.0684402086492163,-0.062482926985374235,-0.0530306582856747,-0.04060309410037577,-0.026613535873393927,-0.013819383970484485,-0.005790938334720427,-0.0049884107315859684,-0.010301625952509285,-0.016890517887504175,-0.019371583784275916,-0.01510854151800041,-0.004647838319966947,0.009830841616873202,0.026131466690274614,0.042942051528224265,0.05956706902507621,0.07492268397809135,0.08706520955205728,0.0935265635357826,0.09222063336598045,0.08291777366514194,0.06798363413703429,1
0.007169483530937038,0.017370202419113825,0.02042599419985121,0.020217069180869338,0.02157226130503092,0.0278891269176156,0.03906167381205032,0.052088427180205135,0.06335540627806158,0.07041490564259464,0.07270289767571826,0.0709229599021365,0.0652459130205796,0.054290334715604655,0.036855028707833706,0.015235131747250831,-0.0037027113112292117,-0.011667539301948988,-0.003912991520689345,0.01761003859318896,0.04423628049584487,0.06342130648937697,0.06394258593716919,0.04164264418571992,0.0020620843299939563,-0.04222067761143862,-0.07753124857965903,-0.09511618489506432,-0.09527684869411195,-0.08718775737837642,-0.08351590870834688,-0.09339475117656361,-0.11794793702611622,-0.1498976116011424,-0.17728578635015405,-0.18942593904017216,-0.18078518986479006,-0.15081297723638395,-0.10250183210666185,-0.0411957988090927,0.02748804553811093,0.09951350669303428,0.17260319707075714,0.24563313845166962,0.3181109209861588,0.3895676088185322,0.45822406429970103,0.5195990341617822,0.5674895565941697,0.597437374875854,0.6092018635185082,0.6055359790811754,0.587904027077382,0.5523922975780416,0.49000261028392306,0.3923329936503521,0.25880809907533203,0.100914668823292,-0.06001011225667038,-0.20232823571647465,-0.31557377451083757,-0.4056717904217748,-0.4900685388968182,-0.5856025818040828,-0.6968595431268368,-0.8116616954145376,-0.9052486083144144,-0.9508040574547257,-0.9308944319970872,-0.8442436968152643,-0.7057679912611301,-0.5404967520242577,-0.37444546123024325,-0.22692984932178412,-0.1065199736146509,-0.011175744889952849,0.0669933781274995,0.13483222025544978,0.19403061856563533,0.2417613435152901,0.2740621637888379,0.2893005360860575,0.2893641163101596,0.2775146493589754,0.25545374143084876,0.22333814661824997,0.1820996358631598,0.13479741256915256,0.08665428627575866,0.04445254441960589,0.015100671911296486,0.0035540605522295723,0.010268527678832998,0.030124825107696332,0.05496843418331118,0.07782815967413947,0.09539623187302378,0.10793115816297874,0.11768115035103778,0.12672352899663158,0.13500203323193005,0.1399232148379636,0.13809937805359654,0.12802008060623823,0.11167209975770256,0.09426942255384425,0.08216991910761816,0.079300803401613,0.08426747149162318,0.09105554095395091,0.09280579537995276,0.08516065278002453,0.06760736256941266,0.04346216682690168,0.018333653950612223,-0.002649959088689497,-0.01687582476742762,-0.024645382796590003,-0.028294472370412938,-0.030040883122957353,-0.030221946312571933,-0.027860072498629474,-0.022368991124727112,-0.014575759413213159,-0.006403789937050385,0.0007273022966191277,0.007028058030792449,0.013445355014628499,0.01988495688065067,0.024498434441423207,0.024446169130655285,0.017229728915922532,0.0021992481570585077,-0.018413742784972025,-0.040612185880804216,-0.06078240694933146,-0.07644392294125311,-0.08672509954765073,-0.09311667060244033,-0.09851788372949721,-0.10522166678467354,-0.11339633503077565,-0.12000243274760618,-0.11963275406151302,-0.10835528205296519,-0.08803392634251316,-0.06813348527927462,-0.06337521959603713,-0.08630836949213412,-0.13702852580347893,-0.19613856154206813,-0.22576896792634385,-0.17978021637770375,-0.022761022924825097,0.24640169023219816,0.5779468912385936,0.8760933727637334,1.03179705564618,0.9724613727098312,0.7019413609515642,0.304474377906868,-0.09386206957605223,1
-0.009060729807870174,-0.023159090311548874,-0.04504716772993335,-0.06356030060214415,-0.06802100496962482,-0.05324511733754499,-0.021832795442096212,0.0169440761384002,0.05175987959041261,0.07486668850580373,0.08492291457300533,0.0860740487749204,0.08461876297673816,0.08585374821476387,0.09345857449991599,0.10994686802112663,0.13562225603684946,0.16717887495475814,0.19812619177344615,0.2209977885240938,0.22996778756403696,0.2226417425351775,0.2005530251584689,0.16824093126950362,0.13147204194652495,0.09572947906790634,0.06526148699993355,0.04229674374143559,0.02637845801157751,0.014461160258600267,0.002451368039925128,-0.012043960911608573,-0.027701398991941673,-0.04062992219530685,-0.04806448185552197,-0.051251736141050545,-0.055273935162722686,-0.06599300207034348,-0.08629929301103832,-0.1143597075661231,-0.14513098110892303,-0.1738892182982259,-0.19740889022568625,-0.20956432221992277,-0.19516563976914833,-0.13025096882709855,0.006382965504921061,0.214052275610299,0.4553283340989072,0.6594105644318621,0.7486515362810678,0.6763655584513428,0.4538647359971257,0.1497841323805193,-0.14010618819317325,-0.3370853120761311,-0.4120174740491459,-0.38793366768016263,-0.31591763369288356,-0.24410837467516777,-0.1979029904219634,-0.1774008740055263,-0.1677997599710465,-0.15325762020225964,-0.12632720124490235,-0.09039551945659462,-0.055719737542392705,-0.03161250200346404,-0.019959776989637735,-0.014785262497218453,-0.00780370980540541,0.004578720628333794,0.018753183792922408,0.027857022421420373,0.0275035309967789,0.01845499099879339,0.005412554686686017,-0.0064013443520366566,-0.013616053677047105,-0.0148821195873119,-0.010714927156558376,-0.003910017943116051,0.0008449070527914585,-0.0006349397064878744,-0.009168036883951496,-0.021291279181683855,-0.03046474542468579,-0.029680527498365535,-0.015250271029649952,0.010056269924133557,0.03759845111914961,0.05704759072076387,0.061021910246381844,0.048337013867095754,0.024788499676693262,0.0005036804862291432,-0.015119121727389176,-0.018197084387139267,-0.01126532706773405,0.00040086815409369394,0.01295528286820866,0.025514716094710822,0.03913787037487693,0.054358036527630424,0.06934044501294938,0.08038085636212666,0.0836233222384931,0.07604988329527684,0.056460250484427474,0.02731394867847836,-0.004731200647585154,-0.03126153169528584,-0.04562039330512772,-0.04524929531757635,-0.032624831858824505,-0.014421536262826972,0.0017304192726426404,0.011631897412905854,0.01699678135049644,0.023499796258044055,0.03524770525639392,0.05016989465818926,0.06035055639903082,0.05676351199423262,0.03441132860574151,-0.0052157118954885085,-0.05442413796472632,-0.10141720007994921,-0.13392392045299226,-0.1435591942804542,-0.1295592208610097,-0.09985578492312142,-0.06797717995354714,-0.047307097143925066,-0.045057471067475534,-0.05837231166399601,-0.07624670625494716,-0.08729603035503578,-0.08697767967078134,-0.07809882368884662,-0.06496792830405199,-0.04732104664236317,-0.019948211683713038,0.021620158150072157,0.07331772966454972,0.11872554980824895,0.13484033738605267,0.10632830270818476,0.03868640141705042,-0.0411477476570309,-0.09893223530343419,-0.11239864005436517,-0.08369389051890613,-0.0371923941229841,-0.0030501585366649684,0.0027098416877201683,-0.011724039447388014,-0.020454259482691042,7.011072704623915e-06,0.050547891595144376,0.10587778319275011,0.13226963289744542,1
0.013161233859778,0.026067274032418687,0.041487349192315066,0.05754240325022952,0.07134593660590371,0.08027629958649295,0.08270759970843139,0.07876218447463994,0.07045334354445273,0.06092003447820789,0.053409580506389776,0.05008265368096384,0.05073579506592428,0.052956013402657376,0.054461222049094565,0.05544466037255358,0.05902338626670253,0.06950217473913355,0.08882896664975101,0.11375809346289614,0.13629868824440217,0.14725518592634046,0.14091823631440517,0.11864192156382014,0.08908367530192428,0.06357442253696183,0.048701352487039426,0.04206429839989462,0.035325315751305,0.022000801176892938,0.0026972902428675765,-0.01658915290452556,-0.030092272472900382,-0.03615442211548178,-0.037410050788795376,-0.03884726497283102,-0.04515679521849891,-0.05819722872930022,-0.07629120977612727,-0.09612099731919208,-0.11527387943417898,-0.13291917387532257,-0.14723811714652515,-0.15034176628498952,-0.12497921389577499,-0.048349437831244256,0.09483491062940821,0.294297098320203,0.5035315006496636,0.6500127075660734,0.667329686486789,0.5317909845377903,0.27886078176585105,-0.012067974341034314,-0.25520906033038454,-0.3963585659808873,-0.42989333860449325,-0.3881214098923185,-0.31537178009986844,-0.24543978453081172,-0.1928606646785811,-0.15642628858638793,-0.12756492546406273,-0.09814379946313588,-0.06557377450402281,-0.03441860837708818,-0.013504069141681539,-0.008858184736888878,-0.017642564442623035,-0.02922690127513873,-0.03232632845613466,-0.02191230647269482,-0.001494472874286756,0.020077867287304766,0.034370861140321035,0.03760062269323964,0.031881116839978005,0.02328729967170061,0.017988756547831723,0.019441987461157086,0.02772512742351135,0.04007541296614202,0.05188310167513275,0.05805902782899193,0.05480250493346022,0.04111072228909856,0.01904254041833782,-0.007402444143601363,-0.03332977303036104,-0.05324454345691855,-0.062305165141926945,-0.058601969101308465,-0.04423617704307564,-0.024063023059419285,-0.0030930078807780955,0.014898829597818781,0.027179439051211028,0.03223009235917186,0.03004284367040233,0.021655082941469905,0.008991880411947407,-0.00448107861708762,-0.013712697653765548,-0.014401389055787825,-0.006823179919833224,0.00325317373905648,0.008625337474488612,0.005980367816469879,-0.0018171382810423797,-0.007639500663494214,-0.00522675334926299,0.005641449596354102,0.018628349625129607,0.026239507244212902,0.026309790224545472,0.023378097975598974,0.023916616051950702,0.029967112727110636,0.0363744850821503,0.034463569223717114,0.019915072788781255,-0.0025077381042715972,-0.021734649820579925,-0.027751306617040797,-0.017736569812237493,0.0031312430268424863,0.02596545900050693,0.043588538280123185,0.05342215415785393,0.056807525685770084,0.05625768010098518,0.053586607816375274,0.04989435892534195,0.04587321006241687,0.0417450028026016,0.03726285133816656,0.03189916146971468,0.025403121658915017,0.018439653524229403,0.011937925184047566,0.0052731113383686495,-0.004134954864028082,-0.018297168224368866,-0.03539288018829347,-0.0497786201172063,-0.05577161930076363,-0.051610422032191294,-0.04037892618212972,-0.027248690288874226,-0.016214735153041546,-0.009656148865666625,-0.008631952459189763,-0.011641320486938743,-0.01463377122404444,-0.013803201673743277,-0.008097388235754375,0.00015848272535204724,0.005435878707407721,0.0005923388645523737,-0.01932636810530912,-0.053196370625229854,-0.0931752907749117,1
-0.01392664694728879,0.08764378243439613,0.16869513957275703,0.15650889478432956,0.037444685884427564,-0.13918283595999856,-0.29661882655099314,-0.37607552957723733,-0.3629183585296084,-0.2842742471951938,-0.19010311127290477,-0.13195485522904565,-0.13933979868734975,-0.19580533278353615,-0.23542606105724395,-0.17833595186596907,0.0077720745869330095,0.2650483352350918,0.46278062215134813,0.47331226946092964,0.2585232420994607,-0.09490207959595669,-0.4187934551414529,-0.5583465047618685,-0.4591398835707242,-0.1935654976411918,0.08631185256189372,0.2372472202521801,0.20295875341730027,0.04118464717949248,-0.11345895557150017,-0.13126991044149883,0.03156187116470986,0.30151305107204296,0.5279134774326377,0.5713616219630463,0.3842867144681376,0.036776823391160174,-0.32049188516565297,-0.5320820921102906,-0.5148970857806345,-0.30101833890958435,-0.02561566124256382,0.14175979686956106,0.10086535701610287,-0.09780713948372696,-0.2663474246273313,-0.20505613459173413,0.13889641825004867,0.6032143640320664,0.8990411716151212,0.8067491285835047,0.33969071974861575,-0.25244608694536685,-0.6495104656608606,-0.6709321696596017,-0.37637458597286355,0.002552820480371587,0.23266298132748675,0.22043624176724702,0.03239515177237949,-0.18744787064288743,-0.31419943367559316,-0.292063304243452,-0.13845502237075197,0.07565115628933329,0.25724662073253496,0.32841145186957776,0.2589345887093861,0.08155540115077009,-0.1216766447878826,-0.26125691878541835,-0.28802986241507367,-0.21537299977138014,-0.10083300862726066,-0.003323206870091789,0.0498376520849818,0.06491837481345374,0.06156462966147699,0.05396820187044915,0.04617391210206155,0.03733736738980701,0.02759156974438018,0.01917405673182022,0.013903865059670697,0.011347961424945843,0.009333490171673215,0.00593509700594904,0.001234577011941971,-0.004044258499919502,-0.012596713227663635,-0.03171309424515845,-0.06869557681767971,-0.12375264168738877,-0.18441997682889147,-0.22442196853379354,-0.20968680516229848,-0.11180735515178097,0.0748946566297414,0.31988794029448536,0.5564643781064237,0.7027808597761971,0.6982005384028084,0.5349489031498313,0.26467660622162614,-0.025362505075307386,-0.2523753325372294,-0.37145573342326194,-0.38578953970834123,-0.3319985002136022,-0.25357850441610386,-0.18018724142825007,-0.12254661696638966,-0.0790269059019737,-0.04376545330142089,-0.011393172924949532,0.020626487739894978,0.05068682279680386,0.0734834161355554,0.08330152859583394,0.07853359148295048,0.06354768852602766,0.045840682903438124,0.03107126979750549,0.02038852590951907,0.011312074967934425,0.00022854909629925913,-0.015284114273718334,-0.0350040425395589,-0.05615873425048581,-0.0753249092603681,-0.09100162618362494,-0.10448908719036211,-0.11799244741684745,-0.13199087008275273,-0.14426086858794104,-0.15084531044988506,-0.147966515094454,-0.1341797291916797,-0.11200230760415732,-0.08749547385035884,-0.0676242780893388,-0.05696139915951424,-0.05555867654260577,-0.05940149832168086,-0.06331378845543807,-0.06401437617410495,-0.06073817461297165,-0.05406028254479185,-0.04499453382914802,-0.033842984879267096,-0.018856336093761982,0.002763657962454036,0.03183971121645537,0.06563753344003022,0.09871945700825388,0.12525278380183857,0.14210078768046708,0.15074891311322597,0.15599973488188754,0.1620052423533529,0.16884314946945625,1
-0.038914467561870794,-0.02184645072963074,-0.009766316073893336,-0.008891664471320036,-0.018147382450788747,-0.030241189194825494,-0.03679806083924759,-0.033605726919853654,-0.02217614256711941,-0.007248982665000259,0.006858021203448117,0.018140733881896805,0.026484358809516453,0.03222757276468625,0.03505631179762948,0.0339374407485601,0.02767506447312527,0.015143756070144966,-0.003531755702893434,-0.024271774573641467,-0.03863833077581888,-0.038425972338119126,-0.02229944670264486,0.0012296120624231306,0.018280829655946546,0.019411664031089928,0.006751705770627479,-0.008273534500512863,-0.015003539484873095,-0.012524893067664503,-0.00917431341551995,-0.013105199486841454,-0.023620610723257916,-0.031880172363466845,-0.02975968716530932,-0.017584940485601927,-0.0031090142709117845,0.006098993645382284,0.007739019784913619,0.0029149733396378686,-0.008142542789618097,-0.027056858596396012,-0.05368056600292598,-0.0802919992181342,-0.08794380057219497,-0.049315818797012585,0.05896530075022218,0.23707914743620137,0.44785392553859116,0.6220441551870756,0.6859129937786792,0.5980442265358495,0.3741211125688836,0.08318580976608943,-0.18455942996661429,-0.35968092306671673,-0.4204569201030315,-0.39175668552345444,-0.3211880855812147,-0.24994399857935093,-0.19605604891839445,-0.1565870071878008,-0.12111616811564069,-0.08394938224068765,-0.047861661518583926,-0.020169995257395462,-0.006780457484494734,-0.00860569619225311,-0.021260620218970017,-0.03738102948420926,-0.049590620964836976,-0.05280642733978759,-0.045869137391754855,-0.03144308120150214,-0.014177102762163753,0.0016522536047942332,0.014482679833073164,0.02611989372357018,0.03948159685639321,0.055043304705747864,0.06876934468265002,0.073631809712155,0.06410944656620157,0.04054891953742452,0.010473942243369436,-0.014715134508180752,-0.02619938594316659,-0.022606888510953,-0.010147331026462699,0.0013944018298679504,0.004435085246960275,-0.002400672516297569,-0.014167077430036439,-0.022719553338312194,-0.02162569883007124,-0.010112238858728407,0.006938223167860939,0.022661917145543803,0.03285049863218053,0.03849189866972534,0.04418205467854968,0.0535883799312496,0.06561753067863928,0.07466422077793118,0.07545366871106529,0.06807311939735373,0.058009128570755644,0.051503104952343566,0.05057071180003517,0.05165680372754309,0.04863990966985396,0.037544739378707545,0.020107957064114827,0.0036174367901710518,-0.0036817614241126716,0.0021963201676491843,0.019075603057803314,0.040089965704694475,0.056841191758516346,0.06285518947230587,0.056127651044976204,0.03993002890707144,0.021695959545243615,0.009299301366874513,0.0051800073753794345,0.0026020414082323223,-0.011644525967268381,-0.04810025035133366,-0.10380833584328014,-0.15844360124149784,-0.18378986631142905,-0.16262383272524056,-0.10313363979995334,-0.036038598162113966,0.004707368450490239,0.0033140690894073576,-0.029233424980558968,-0.06434066734997863,-0.07578865067513788,-0.056567940397966136,-0.02130824434381737,0.0054135790862698645,0.004409578243517277,-0.028860745922212733,-0.08411314800300536,-0.14278044025948058,-0.18606475267308142,-0.20070710092395433,-0.18223191136334502,-0.1362090111626578,-0.07636163711712714,-0.01896625839557508,0.02357529420644769,0.04632491544845133,0.051818795196803394,0.04760679374355162,0.04194487885780798,0.03916754117474801,0.03753208478663214,0.03095533446232226,0.013593151257121763,-0.015400696572123857,1
-0.1823352447234861,-0.18742753869798595,-0.16728915900884664,-0.12600410053620295,-0.07685364675084355,-0.036293477020800595,-0.01573548304550565,-0.01436768545835275,-0.018422915070176106,-0.009001098503718413,0.026025859914251284,0.08273259069810068,0.14186883460548,0.181904448457971,0.19459553849651087,0.19007283771345646,0.18824599769254008,0.20388819422318397,0.2364385273205032,0.27155240044848594,0.2920772399693044,0.28942828005443955,0.268045060180411,0.2409948670767676,0.22003354429330146,0.20764436611599066,0.19695348165374643,0.178558445004075,0.1482212327353335,0.10955365228796124,0.07062574108777928,0.03853736004447763,0.016476871125197988,0.003954728907120272,-0.0018500608101995955,-0.004895438032155412,-0.010002762665406513,-0.023873110880062172,-0.05479864207221943,-0.10833708794540889,-0.18128351910045717,-0.2582023441681568,-0.3132019024104504,-0.3187752519880549,-0.2580851001574258,-0.13120286814682616,0.04812354024957986,0.25670430279109435,0.46044262159240856,0.6142392114384698,0.6727388028187242,0.6099154905043336,0.43576045354864734,0.196452110159939,-0.04670860374906097,-0.2466151589540973,-0.3855755890725341,-0.46701678487081605,-0.49563111981288627,-0.46558064745061933,-0.3675736001543989,-0.208789534592713,-0.026560141062326813,0.12061922677550016,0.18200703421192566,0.14299050249048328,0.03446775558417115,-0.08109880786086218,-0.1403136610714169,-0.11227054714948798,-0.017125881704503867,0.08379614669300393,0.1252719080096931,0.0813215440891055,-0.01524482110187882,-0.09225945540338935,-0.08630830883414842,0.012120839212902735,0.14863272800090316,0.23891272346477044,0.2254906546049277,0.11797021042831549,-0.014787368897627134,-0.09693009783772044,-0.10177326747186528,-0.06669882221123129,-0.05592517049353492,-0.10311914003382278,-0.1804231586503637,-0.21822229034358012,-0.1611949430241754,-0.018071053607224195,0.1362844697481594,0.2121876683713843,0.16958090696183076,0.04456795804650327,-0.07918547008736367,-0.12899675701612293,-0.08771122773100098,0.004512247097170713,0.08536281717619174,0.11289576753079283,0.08689654583099973,0.03952101995935049,0.0073946607243650375,0.0074150501982221395,0.03181244527451392,0.06070427384744147,0.0777860342995556,0.07773746247995922,0.06418113616579697,0.04331851291313516,0.01959685552379805,-0.004373082988293319,-0.026475201020568544,-0.04470707718592493,-0.0581849164061773,-0.06815841699742294,-0.07626963472315595,-0.08153187944844355,-0.080920072698915,-0.07356436088001723,-0.06368064888632038,-0.05932272333306332,-0.06801767600084332,-0.09209608355189922,-0.12672492697580395,-0.16206937978682046,-0.18852365036467553,-0.2021340437700489,-0.2061951764676319,-0.20760425111726644,-0.2117229143565362,-0.21976866486284918,-0.22931816892434173,-0.23674494751552652,-0.23968050079199776,-0.23803780722889534,-0.23372697830009792,-0.22941325549147706,-0.22644728044150175,-0.22280109289578195,-0.2125071089282296,-0.1879431545836901,-0.14451630599609425,-0.08474178966291103,-0.018425192248147232,0.041523222458075784,0.08505927571488854,0.10923517104900705,0.11846760010066015,0.12154158787345315,0.12770455033331815,0.1430349638725616,0.16769043108235,0.19589172024740964,0.2196018265947585,0.23331844986369465,0.23630349106206838,0.23137831735974418,0.22255486233525823,0.21373792618470253,1
0.11225023486382192,0.12365782049917728,0.12963054122129583,0.13252657555177744,0.13558383906343932,0.1398463759393013,0.1433888982980456,0.1435113256868815,0.13898846763302106,0.13070820208885314,0.12098248869492614,0.11183452478302797,0.10340279628157797,0.09395394610236757,0.08173685996406732,0.06735874353116839,0.054265118030462675,0.046201973601488096,0.04387414644325524,0.04446425752921597,0.044333881642230615,0.041294359084170326,0.034722468620908414,0.024939004321733405,0.01250000899137512,-0.0024132601114620553,-0.01979285917475483,-0.03889573933315735,-0.057771500109037865,-0.07407149470309034,-0.08647330782730539,-0.09549738876772859,-0.10300821580978914,-0.11067822409747488,-0.11868459436686726,-0.12544545279857044,-0.12846169636512086,-0.12596161313961296,-0.11863411158420482,-0.11094948176388139,-0.11096812579574358,-0.1264844816836825,-0.1581534643044567,-0.1941805443386016,-0.210058146411061,-0.17451108644776905,-0.06272824487875979,0.12515749558032432,0.35056065406028436,0.5420099049593321,0.6236669220145751,0.553282823096866,0.3469173961228453,0.07383688956445834,-0.17691557536658226,-0.3385230941776966,-0.39177200166289383,-0.3612151830631848,-0.29049396561058266,-0.21626108240202324,-0.155876643054878,-0.11122182119389538,-0.0786768799337958,-0.054780067793613794,-0.03676446094494017,-0.022299579782231595,-0.01040494023458275,-0.0023393726756747585,-0.0005384403194928639,-0.00626081325916877,-0.018160702540087597,-0.03232404686975195,-0.04391173547698239,-0.04993393735035888,-0.050343253810646256,-0.04655147463900777,-0.040167404973790705,-0.03305862561895488,-0.027455232155437635,-0.025363626985644063,-0.027260685928841125,-0.031250301760346585,-0.03384909644449288,-0.03207792429517815,-0.025641783811249916,-0.017020876424922452,-0.009305218773813184,-0.004691034009194923,-0.004235349702966434,-0.007449449073712009,-0.012430186882433913,-0.017152429558292732,-0.02048743696190269,-0.02203299215788383,-0.021767129113459932,-0.02002547147506376,-0.01728175808261262,-0.013870063748425395,-0.009622621246263103,-0.0037348307327852853,0.004239644034730606,0.013142270265429653,0.020488891804635326,0.024416614723624424,0.02568437669698712,0.027513775941807296,0.033253158745030605,0.044332819482090106,0.05938584890677935,0.07471871418214776,0.08690404648050819,0.09508876969377406,0.10048361667861828,0.10457486867753323,0.1081642007010478,0.1113936234168163,0.11389419321449296,0.1151711841964894,0.11540968808468477,0.11505127698235619,0.1133129131199303,0.10816117794113486,0.09805332544652567,0.08323887362066049,0.06512844548799153,0.04506289465881969,0.02409561703224919,0.0033096091894334774,-0.015940410856116836,-0.031916540933267894,-0.04288564102080446,-0.04845184042159742,-0.05066248897711767,-0.05274980154157033,-0.056631069041012325,-0.06179343633033068,-0.06570925810472296,-0.06568980247511766,-0.061247829825519226,-0.05416838969999793,-0.04655168974078143,-0.039730229696282385,-0.03437655107507488,-0.03048535581782784,-0.027696266933430386,-0.02613953663211152,-0.025906207368951988,-0.025556541493699556,-0.022296098453563642,-0.014004623639023755,-0.0013828295537561706,0.01176141903794203,0.020552264273973657,0.021791975918158103,0.015755668591893604,0.005707097032666765,-0.004259187099172683,-0.01090919386328005,-0.01290157579464494,-0.011304689134363851,-0.0086804075693772,-0.007015593092025798,1
0.029806161380786976,0.009052525821587018,-0.010985560617288047,-0.022437149889325995,-0.022643833883395484,-0.014642955733674568,-0.003196422356372186,0.009533635202873404,0.024994891155001444,0.045315090577157775,0.06941475040607567,0.09160914001075691,0.10403876639831813,0.10143209392516638,0.08459025962735597,0.0602254797491737,0.03751959001562209,0.02331536317835967,0.018359202856787014,0.01666021922163336,0.008997633021621572,-0.010569996071472043,-0.0390004454389923,-0.06366742976348093,-0.06858805871549364,-0.044616222293125805,0.0028069849440743207,0.05366985378731734,0.082559244903238,0.07280336509586682,0.026013284333193176,-0.039604556292856315,-0.09984687458519967,-0.13724465682278525,-0.14854690562600473,-0.14198849542535724,-0.1272880835014984,-0.10788173234041722,-0.08239938272330166,-0.053035895796289596,-0.031391603699205343,-0.03389801895234698,-0.06798701561968315,-0.11888761425319766,-0.14800335391899783,-0.10753530493989899,0.033930265388075136,0.26701146082796445,0.5324585775518063,0.7380706112295088,0.7973263771298545,0.6706569416548561,0.3880291154838893,0.03783857426590581,-0.2748526571262762,-0.4752237323134265,-0.5431407303955926,-0.5067831066631734,-0.41619797645685624,-0.3151967713605432,-0.22653095516078667,-0.1538502307745751,-0.09286207824203124,-0.0415580508654147,-0.004089958014971336,0.012115187216888021,0.003897921068207754,-0.02043929961989823,-0.04143513877087573,-0.03913822686257481,-0.008382026858838544,0.0331630531289543,0.054070355257206174,0.03207384911715211,-0.02639503168880909,-0.08645738172509561,-0.10711306799978317,-0.07126061316285782,-0.0011797263685925114,0.05434745938638981,0.05519335939532129,0.002578852787750892,-0.057436216676877434,-0.06576656859770531,0.004480366269455157,0.12386337590477174,0.22315873068567596,0.2383757085529433,0.15164382035441984,0.0011538142462097709,-0.14325202102608892,-0.2188120210345483,-0.1980193007620632,-0.09557446002823139,0.0420251522361624,0.15540804853754325,0.19250049063266,0.12701894365640698,-0.02770218416848349,-0.21666106099548543,-0.3586573500612018,-0.3789403913419319,-0.24907104107485706,-0.011503555030324606,0.23123376724462089,0.3616191043728487,0.3062415990261031,0.07926707910957528,-0.2175367838380542,-0.4440460589299376,-0.49538190687382655,-0.3584369675598782,-0.11650277278693888,0.10353629898403112,0.20822530283789567,0.1882079126014419,0.11286682532426894,0.07747298461485291,0.13897582927172747,0.2825849297007525,0.4398930462151541,0.5402989172384396,0.5532170472184983,0.4903710684696851,0.3754103777579377,0.21896179461048498,0.028372894688655184,-0.16202252269000128,-0.2843881226478808,-0.27780110321403667,-0.14586265226824746,0.027241836673785463,0.1310845882629506,0.11595600560448165,0.0352305552314327,-0.002596827587522013,0.06305140918732327,0.1793103066294309,0.21759294409882474,0.08797698399921738,-0.16849764820050042,-0.39396956748283857,-0.431622061126109,-0.2558310205646783,-0.0025019487094882775,0.1386677209163257,0.08665091534293856,-0.05835631249088699,-0.10284539345903831,0.06672986645574443,0.3740811755054789,0.599514179248786,0.5477984926565177,0.2022855503997784,-0.2591429876848521,-0.5930155164242071,-0.6548182990420106,-0.4754690836952667,-0.20885781454119595,-0.011028427359103567,0.04947215327985636,-0.0009385176661655358,1
-0.07056739178918521,-0.05736678986871672,-0.0339735570373365,-0.008051001953560486,0.008949592171863176,0.009544262283398004,-0.0036990021606347987,-0.018965717667697717,-0.022674953554898555,-0.008940327100760755,0.01608950178351979,0.03887655525309696,0.047869934791920296,0.04005531792111039,0.021170803561252106,0.0008533537810411149,-0.013079374299388151,-0.016918892755886414,-0.009627396244951916,0.008542867892546283,0.03506839757847314,0.06390394414838625,0.08658291546617922,0.09531598429610912,0.08641993712970195,0.06243744055331079,0.03053059141353346,-0.002176307517186442,-0.031110554050938072,-0.05287311292494215,-0.06409595710190975,-0.06291718483776738,-0.05082371175015835,-0.03275112095643364,-0.015379468305860204,-0.003956971267832207,0.00015542726273562856,-0.002052781580805758,-0.011788781957905458,-0.03485272455736436,-0.07856998020038582,-0.144669141993481,-0.22159472668910318,-0.28055479185677373,-0.2802163764221525,-0.18144380917279818,0.03233858239479666,0.33698105776284065,0.6619375396070089,0.90702895558182,0.9810922105507038,0.8454869404091268,0.5370336646458322,0.15387953527190235,-0.18940675139670055,-0.41142757751085557,-0.49067928274171113,-0.45866640893641597,-0.3704627933631399,-0.2741307781913259,-0.19501017958697586,-0.137899933140032,-0.09853700986680404,-0.07296398200214266,-0.05980410943206029,-0.05761539519143098,-0.0618127584947945,-0.06466683014711926,-0.058967294742445234,-0.04234970213094364,-0.019181134140212684,0.0012467679807174926,0.009811593956930102,0.0023186238862727936,-0.019069317414959104,-0.046410599067693126,-0.06793398475042861,-0.07271740752796592,-0.05657270501654457,-0.025294508592491688,0.007093116662024692,0.02512888995723766,0.02102688244224928,3.204267745327352e-05,-0.023402976995121727,-0.03634363900474691,-0.03583763167165591,-0.028579451052778967,-0.024029982207996972,-0.027405698495215167,-0.036479215680201425,-0.043742287945291294,-0.04258103577779807,-0.032657504591453286,-0.020647303202422362,-0.016017077078894274,-0.02468969557853062,-0.04477562342968994,-0.06646453792161686,-0.07624605684913653,-0.06473162176410485,-0.03376070182780007,0.003542767077256411,0.030917850958475043,0.03953242503289528,0.03303674422300887,0.023314688121082852,0.02139056146307721,0.03098984439059113,0.048047605873567815,0.0656294378566812,0.08031489994833314,0.09459713378791852,0.11367320347663283,0.13922119437739688,0.16527917476681153,0.1807283976771636,0.17679866598734714,0.15317924698955382,0.11810139660672345,0.08283002461465638,0.05542502631936367,0.038479022322591074,0.03066969499224996,0.02956420886410899,0.03363215913529258,0.041618507994361634,0.04997594547802764,0.051863028314996285,0.040177828311330877,0.012832541976232488,-0.024191269555894616,-0.05862545803778901,-0.07835795519519621,-0.0788169825802098,-0.06570536209117653,-0.05096857458965447,-0.04479542914347284,-0.04978404239483503,-0.06180858573358404,-0.07583963280939551,-0.09027279128047914,-0.10501825160083593,-0.1172655988276599,-0.12206253330282783,-0.11662545985257886,-0.10298307684081937,-0.08698956489246774,-0.0745213649335694,-0.06814198330282427,-0.06745425615249831,-0.07096693953012313,-0.07486696856912743,-0.07004909143005224,-0.044202769897663585,0.008365861075075542,0.07674788830719101,0.13501081856830535,0.15749406013122547,0.13678164749334928,0.0897593546930221,0.04489051999462543,1
0.01985549988852002,0.0825993052963557,0.08020869421685811,0.028970540926725574,-0.04023762991126101,-0.10305498644215469,-0.15153197150146758,-0.1868395123480581,-0.20572234191468358,-0.1947913222890689,-0.1384676027750495,-0.036417271698632236,0.08351204214307457,0.17178692715419935,0.1834643274598225,0.10741401492529215,-0.021742675520682368,-0.13834391787902559,-0.17942901551098656,-0.11699545591701928,0.02940597553924859,0.20313042063686923,0.3354950858054633,0.37480122744544875,0.3094892285178554,0.17481893551631486,0.03682686244412406,-0.039983768083910035,-0.02408273661337222,0.06918168816080211,0.1884261385935469,0.2751254822602534,0.29225140880498407,0.23638010966919187,0.13126622335519306,0.013008187380582185,-0.08212005804176786,-0.12612138191397754,-0.11066107373709427,-0.05939128786955615,-0.0260005011801022,-0.0669890987000192,-0.20050961624415514,-0.38070711929069784,-0.5107483184362075,-0.4914027181223092,-0.2764465878689116,0.0975734438058406,0.5215763516149216,0.8580600884623951,0.9988323458238387,0.9102104775998761,0.6442729558860523,0.3082562441643564,0.00697664502076647,-0.20562006144653122,-0.33497952258982405,-0.41612334183583155,-0.4741242409928122,-0.5050198477935907,-0.4886926016510391,-0.41769153561643646,-0.3111784300225252,-0.20023883492335892,-0.10290817134577933,-0.016593268733556692,0.06625954510556416,0.13900654267129653,0.18184759861860092,0.18415529027824273,0.16200201712074433,0.14777594629093907,0.16039284572147255,0.18585325152732637,0.1870320498808454,0.13438060261471957,0.03265859388690475,-0.07750988541821388,-0.1463620603196017,-0.1499166204713234,-0.10451758023775216,-0.05116015517893807,-0.02541545863566268,-0.03679640701616708,-0.0703606116735073,-0.1039900908708071,-0.1239314827686051,-0.12811334107654304,-0.12018346611159726,-0.10366902699609527,-0.08150849829198717,-0.05811584614096846,-0.0392108209139593,-0.028367870388134504,-0.023933652144649847,-0.02058338498511815,-0.01446808644865278,-0.007266093716091597,-0.0057965533467225945,-0.0173719621006276,-0.04451646839020734,-0.08255688244185479,-0.12112211321192067,-0.14893534356465438,-0.15884107963827174,-0.14971869505882635,-0.12580633722355858,-0.09501644595073104,-0.06612544696047236,-0.045498175541572886,-0.03464162033346262,-0.029390172068043296,-0.02217869868722207,-0.007133781443447153,0.016005035818088566,0.04205068472890952,0.06352265899297835,0.07474151646755967,0.07503036751164757,0.06872433820993068,0.06163629159659287,0.057003993121933265,0.054114720380159256,0.049931123316340614,0.04209185166064771,0.03142362389955937,0.02203603751893179,0.019118216612091815,0.027337506011112435,0.050195065079658346,0.08785999556011512,0.13420887491629793,0.1767299161246844,0.20149034955188777,0.20100786577697397,0.17880480210033212,0.14665273401701753,0.117416189043043,0.09839268678925213,0.08762391249427755,0.07544883658975982,0.05181149062333522,0.014842793254958702,-0.02561096378699664,-0.05249033074560988,-0.05156354755967406,-0.021547986021602208,0.021359729142632167,0.0491273417814993,0.03736694430746792,-0.017569995975149834,-0.09252469006022031,-0.14956597183160325,-0.15937704538435055,-0.11991610758214141,-0.057567039300274694,-0.009823220737435088,-0.001603515922776866,-0.032407192493460205,-0.08215939917418723,-0.127766951617595,-0.1562547295352242,1
-0.035908125480257194,-0.05121781046529253,-0.0588312966956851,-0.05769524432460954,-0.05047326295031063,-0.04251121218519564,-0.03870552591999754,-0.040120870226095846,-0.04325939977758341,-0.04313450521670127,-0.0379001749748081,-0.03195245260432829,-0.03395973083265462,-0.04880483522139731,-0.06999188839853056,-0.081329800750575,-0.06868955501960108,-0.0323934057874848,0.010841550633809208,0.03865866840347166,0.03856347921794738,0.01652094925258421,-0.00878364863391514,-0.021737812340187027,-0.02108746111159753,-0.016814225269385537,-0.01782046829062153,-0.023796673587437287,-0.028003737543346455,-0.02618460949697204,-0.022860331128531856,-0.028707762031798673,-0.05006115396360428,-0.08061296781504382,-0.10398784983278594,-0.1050297350692979,-0.08116535343602069,-0.04668048569202263,-0.026697476754024008,-0.0432306951791327,-0.10149143546633521,-0.18491341962796248,-0.2614091012444992,-0.29517826797293395,-0.25551344096234224,-0.12128475299959826,0.11184825777836445,0.41821432468898406,0.7326895266206384,0.9608966695862213,1.0146840194775864,0.8579955394857055,0.5335163655937596,0.1475346551094912,-0.1811458490000348,-0.37635354022196066,-0.43020258372641657,-0.38761669117514486,-0.307314868115558,-0.22972463664431206,-0.16909859936617871,-0.12482776748033989,-0.09500427590314618,-0.08032003894990808,-0.08030299698804107,-0.08988135809003972,-0.10012247061282042,-0.10267574591186647,-0.09450614562139975,-0.07868467445391085,-0.06083309494184392,-0.04481692121135488,-0.031449673995593716,-0.020354145940594582,-0.011983853838260457,-0.008121375826887874,-0.010553800359916978,-0.01799071908004215,-0.02434860334302932,-0.022053178083770636,-0.008557811578062619,0.010030436815647257,0.022253969604785363,0.019280600137687946,0.001194548961740663,-0.023108010105961398,-0.04241058949089569,-0.05115991007754146,-0.05210349642457941,-0.05161182842353755,-0.053056045264613376,-0.054381127919401716,-0.05106648226687544,-0.041384629915166365,-0.029285730765194702,-0.02187341337099961,-0.02335622249059347,-0.03126849300017274,-0.03837112483575453,-0.038023007989353756,-0.028674964238261838,-0.014693536288280636,-0.0030668155484994807,0.0019530633164954458,0.0021284006076541725,0.003682774011613675,0.012359376940361905,0.029102661043231635,0.049428714955242925,0.06668196615137101,0.07734723368434519,0.08425810206712317,0.09375214471466899,0.10941909177774557,0.1287830166467061,0.14481930666197354,0.15060773359696628,0.14484549523787116,0.13373133204402363,0.12613445039939342,0.12592584199117163,0.1282490207863508,0.12265385193943168,0.10096279766548771,0.06449825749060853,0.024774369993178263,-0.0038422339323966152,-0.013967345682210568,-0.0098035068712468,-0.0033660833196999113,-0.005812396206225985,-0.020137705339053104,-0.03982620403186829,-0.05464118746562028,-0.05913996450405381,-0.05643845372959758,-0.05488718674700818,-0.061438666086619076,-0.07612976870347998,-0.0911092122066079,-0.09582265976011028,-0.08482461357569299,-0.06156967790047775,-0.035817183634905714,-0.01753355947090362,-0.011306556896811289,-0.014857837761062325,-0.022363025932869797,-0.029001594183652786,-0.03308040632723289,-0.03524576731979104,-0.03650111873973091,-0.03726335150546401,-0.03787721728481368,-0.038757291321567106,-0.03939976576865899,-0.03773555403000176,-0.03142485127415226,-0.020510618227694077,-0.008697256462145827,-0.001695898208165088,-0.0034413651209705444,1
-0.00024017047793951224,-0.004421168906037248,-0.013806434460679173,-0.024559315598726407,-0.029014184248304577,-0.021431618721606024,-0.003660355756981839,0.01441582323438965,0.02072275584551763,0.009159249381039437,-0.015966815739158032,-0.042280237088249836,-0.05680922301177098,-0.053801458126095575,-0.03715882879643698,-0.01611170178503896,0.0012846683342906083,0.012026358392164444,0.01771981280884209,0.02129333976333589,0.024021341583649203,0.02497280944608352,0.022409109140780148,0.01504008109128956,0.0025916680975129752,-0.013780752271781362,-0.031720344084466896,-0.04862952149374382,-0.06256702985989704,-0.07276364599664147,-0.0798005724666152,-0.08493119442623749,-0.08880040739216315,-0.0909288159599088,-0.08992290313947444,-0.08388774588321739,-0.07183938990018827,-0.05609031876005074,-0.04394127849101606,-0.04687502534054793,-0.07555671397893657,-0.13082748598176272,-0.19585009066193962,-0.2359049562847227,-0.20706559971573602,-0.07178169629525631,0.18014252226588778,0.5117345870542628,0.8359925347617955,1.0429001090969368,1.0485419403712994,0.838890118819262,0.48064574361532897,0.09070517527283162,-0.21860032865963086,-0.38684864951145437,-0.4197805265594524,-0.3675765862984319,-0.2875155900406766,-0.21632931896428978,-0.16476933681725664,-0.12919728723409513,-0.10421452742072643,-0.08649602799143137,-0.07368562252559041,-0.06386604073629248,-0.0556636619211445,-0.048576726783484556,-0.04295111425375961,-0.03897882305331983,-0.036368591367260505,-0.03477527488313982,-0.03345427984899044,-0.03114706241621667,-0.02709219340789168,-0.02154862158198984,-0.014974393810868559,-0.007421501666155888,0.0008805966484610774,0.009022955570333769,0.01595479746190555,0.021412211162093783,0.02585864721318167,0.029423205433137686,0.03182355186989132,0.033132793807050184,0.03341643404923202,0.03204669099902898,0.028408477057317007,0.02320326576029659,0.01832471126857948,0.014773969588666561,0.010923524728658261,0.003515351278950386,-0.009588253677831818,-0.027732911340671698,-0.04828388925411552,-0.0685171597273493,-0.0866996548095105,-0.10259041416734371,-0.11761295288214682,-0.1338265438552283,-0.15197518495343793,-0.1704315955831627,-0.1859706262186336,-0.19506134828016614,-0.1944036499715786,-0.18134960261504465,-0.15511454306330943,-0.11818583403771424,-0.07654444947223046,-0.03780699341884004,-0.007543582819009988,0.014042887594374377,0.03294451278975833,0.05910131793695053,0.10079504197954779,0.1582836402846391,0.22192587299591837,0.27705166778937157,0.31281862311826464,0.32894769385239087,0.33536453561245005,0.3450823241445662,0.3651545228472893,0.391141625192778,0.40828463201132,0.3992870135131822,0.3544781390464369,0.2775408850383646,0.1830758749204002,0.08877364402792659,0.008240804963441685,-0.05184240821160786,-0.0913809860753878,-0.11523976301242289,-0.13033475685782236,-0.14282524359989568,-0.15684241603846005,-0.17363894552936754,-0.1909369724651542,-0.20380456758355658,-0.20691353174079807,-0.19730847607009583,-0.17689717745430852,-0.15223967920060433,-0.13082470760651113,-0.11748444558999807,-0.1133736963193953,-0.11628475513676838,-0.12160575340671388,-0.12455090993073595,-0.12273719032525356,-0.11650711981091257,-0.10706663202201065,-0.09507034716273673,-0.0802998144799734,-0.06223149948911135,-0.04174346919005435,-0.02237086390940387,-0.009214730903180268,-0.005956855077370173,1
0.02994748299467557,0.026116083601214646,0.020993639991585523,0.01620822221979875,0.011397956968821244,0.005288715828421434,-0.0016829666296410085,-0.0071751069976394655,-0.009609353001394809,-0.009910081088900482,-0.010893318547701255,-0.01550603978733223,-0.024272495191809736,-0.03351876416842611,-0.03708635047842554,-0.030594974029455088,-0.014436883970630669,0.006230392188532151,0.024107178226616233,0.03395859176411467,0.03554381699951,0.03245380994635105,0.028083381435753414,0.023004080644830126,0.015684552038037015,0.004762296897490371,-0.009222483532295904,-0.023859416542487896,-0.036483611346770854,-0.045420485550101294,-0.05028594292806668,-0.05225506288029362,-0.05357673310386057,-0.05591238454675819,-0.059209213920141744,-0.06164250383357234,-0.06024304212422191,-0.05300499944121754,-0.0419422474018529,-0.034858755212461824,-0.04395446509015912,-0.07994364794875446,-0.1427398638108555,-0.21364928133711758,-0.2550468053348755,-0.22001657876442426,-0.07021330944099421,0.20123038452989178,0.5496605654548693,0.878189504666045,1.068856587424478,1.036354237041571,0.7746502513286728,0.3664110271223724,-0.05475791002013922,-0.36853032865337576,-0.5188842253099633,-0.5241507056325405,-0.44785589929694264,-0.3545486774675963,-0.2793471621062238,-0.22554166096885245,-0.1817251578325974,-0.13889577294180158,-0.09639843501250063,-0.05907579834642738,-0.032274998100919695,-0.018099355543773697,-0.013964464284758376,-0.014221912308204836,-0.013779154480618927,-0.01085150430921784,-0.007066555615232449,-0.005246837584986366,-0.006750300915251023,-0.010799492962691384,-0.015816818214849607,-0.020453176059755083,-0.023709132536884673,-0.025246109994593986,-0.025650729867945744,-0.025864482187560812,-0.02645997979869359,-0.027538276937424725,-0.028891002027097646,-0.030045694272202158,-0.030472500852184104,-0.02997218223541545,-0.02863314233091229,-0.026718814575869294,-0.02495604358301425,-0.024413137965588153,-0.025879292748758408,-0.02917093772170022,-0.032828128578516066,-0.03482451385556252,-0.03383167744822861,-0.030377777545476152,-0.02669473308129274,-0.024488421615393195,-0.023009043494117372,-0.019826605699698702,-0.013087271375840488,-0.0025734567979150275,0.010625062448878467,0.024595698161334424,0.037528055478791164,0.04921038725451219,0.06135123323369893,0.07569556643465097,0.0918243265620153,0.10682782768397339,0.11691546226140723,0.11989765849992971,0.1169235149169841,0.11207389722981571,0.1098892373062694,0.11247046819937868,0.11853810205335479,0.1250727647419176,0.1291998349159722,0.12857218189983158,0.12154934426337057,0.10832589557139093,0.09134098742458105,0.0736096257346378,0.05687937652414782,0.04125960318639085,0.025823790852393173,0.009783044094336182,-0.0066312094870061115,-0.02233672954639762,-0.03634450189954795,-0.048712072520654424,-0.06005530156828598,-0.07013619406872551,-0.07772363618958145,-0.08182643338762215,-0.0829397580810754,-0.08304195883888096,-0.08407612680711163,-0.08647863980597197,-0.0893195854016468,-0.09119688828002231,-0.09039612345499794,-0.08551478015859756,-0.07722048517240787,-0.06841064238647954,-0.062003755988495605,-0.059212835413643604,-0.059515359297150267,-0.06134798269330444,-0.06309958300777774,-0.06383608754544948,-0.06305778761838504,-0.06031118636205144,-0.05542304350375776,-0.04880404241626855,-0.04123017591108017,-0.03316035979084896,-0.024602654837719118,-0.015925105862535423,1
0.24416510573788006,0.2058281288178089,0.17155028445323303,0.14211049948954774,0.11646121409404794,0.09295810092998183,0.0704863939620457,0.04829832612569817,0.02551238608591927,0.0015016579898123467,-0.023449076085274065,-0.04806811810801222,-0.07025778301117697,-0.08751423051210735,-0.09821649211886346,-0.10304407775219124,-0.10465627510354533,-0.10550670560297612,-0.10609784479909795,-0.10530337699414555,-0.10219322817683,-0.09774529495873248,-0.09513985764972449,-0.09831933694695737,-0.10934777860608137,-0.12622588909631588,-0.14339313036745527,-0.15521993654067526,-0.1591442049467336,-0.15562819941518266,-0.14680369540582744,-0.13568353081705029,-0.12536090738453254,-0.1182066290422583,-0.11493663529920739,-0.11375677426081539,-0.11146775600253635,-0.10676542155131159,-0.10320857154536782,-0.10906874500184623,-0.13334908557922764,-0.17988976080842287,-0.24138750926883043,-0.29519045834834823,-0.3045604017639538,-0.2286350690495884,-0.04163754228467625,0.24381459245095016,0.5629454081665174,0.8109887934855532,0.8856684635438036,0.7406852221000709,0.4155810276507236,0.019649147730310706,-0.3209009539318579,-0.5205521555051092,-0.5646791884903234,-0.4987981309870309,-0.38946895562298695,-0.2853004263402468,-0.2018819675236647,-0.1329710641489089,-0.06985167330574234,-0.011464496910778416,0.03719561856491668,0.07153769300493021,0.09183417963055189,0.10308300280974986,0.11150632392153757,0.12051412658126281,0.12907109991724683,0.1337772192237879,0.13248522198939375,0.12588777793788503,0.11632605878615959,0.10561616367625275,0.09410145495337552,0.0815717121711191,0.06843388761826426,0.056164640202564745,0.046890961463758575,0.041651304848940945,0.038862756081675665,0.03508643799781125,0.027300926569977714,0.014702195080653194,-0.0010761084840008725,-0.017252359280718943,-0.03138684507729435,-0.0424410951333433,-0.0512108240229894,-0.05931858006917734,-0.0676162362876363,-0.07568234237069493,-0.08258379521833778,-0.08821175392311575,-0.09366593015707718,-0.099898020461231,-0.1063781140409602,-0.11125014116362522,-0.11263687380834603,-0.11011604527186071,-0.10522352088933386,-0.10056616344102225,-0.09800099597052905,-0.09715155884179101,-0.09537417803522295,-0.0887680328878592,-0.0738706267405415,-0.04998508427743298,-0.020611496764705625,0.007572469765167726,0.02780146099871412,0.036335001260190965,0.03367281260099586,0.024206846801432046,0.014966257147542553,0.012708049934158827,0.020197346872045076,0.034960657204688037,0.052002696156121686,0.06746012481558585,0.07972508368489997,0.08868387500148397,0.0951739860529276,0.10048570329557766,0.10561951177774226,0.11107737271029215,0.11680011225043882,0.12201836984641402,0.12583282405962729,0.12813935769091048,0.1298106976054034,0.13210523747526892,0.13605763032619092,0.1419630542098418,0.14881083690939192,0.15482781465289852,0.15913947156101194,0.16195453259350212,0.16292865549567784,0.16073648822529343,0.1548580913951241,0.14708647807811054,0.14076654592165683,0.1386161113548776,0.14105141410240063,0.14585345757309137,0.14872678581631563,0.14462420736465026,0.13026981497715184,0.10664170427268133,0.07928616115394115,0.05584345716963575,0.04185788977129835,0.03748343265026028,0.03761963586250329,0.034889731354138274,0.02272106509637142,-0.0025397772173443335,-0.04023266984202183,-0.08546903187606984,1
-0.05113233226269246,-0.023475625449991887,-0.0025821847071849056,0.00800295319946107,0.008359236792596314,0.001231193757743252,-0.009880896347898342,-0.02292736931383086,-0.038009564427595253,-0.05559369384385053,-0.07462137093925056,-0.09187348178350666,-0.10248476555721091,-0.10228738042450258,-0.0907497240682346,-0.07192695811695475,-0.052677573408381875,-0.039005832932996955,-0.03295137029597987,-0.03274443219993873,-0.03514996409334518,-0.0371471212582494,-0.03682310613201191,-0.033899579504427166,-0.02936629659299113,-0.02454358310967345,-0.020475313801514693,-0.017608783749569146,-0.015336179250392032,-0.012145755077700817,-0.006660923102457314,0.0017213331852987835,0.013126065800452117,0.027635527026403546,0.04519557304644162,0.06500414462617606,0.08469998537193763,0.09961248568373153,0.10232058604417726,0.08323304102533283,0.03381931492629371,-0.047308442435379953,-0.14825864575049152,-0.2407072641917894,-0.28215564354239264,-0.22592067276208758,-0.03977846035242252,0.2706953053209286,0.6461328827812445,0.9794510883530417,1.1513247668826092,1.0850667002894139,0.7901240735868964,0.36291328775167353,-0.05852232223394606,-0.3591394712990754,-0.4935595646793931,-0.490343740487144,-0.41724910876707777,-0.33530762125223956,-0.27207951755674253,-0.22495070815327278,-0.18184987753416793,-0.13795796052546777,-0.09785479299192382,-0.0684987767973865,-0.05291562170553703,-0.04905715657230527,-0.052207409233017144,-0.05757230615659434,-0.06191167869202896,-0.06429569893411376,-0.0654647832638329,-0.06606619119404318,-0.06560964907769812,-0.06330557056302527,-0.05962337449591654,-0.05656035511268693,-0.056038659059594605,-0.058011121566375334,-0.059799934239228296,-0.05699519550440555,-0.046307321786389855,-0.028852873748543166,-0.010467632855527943,0.0016576059066074258,0.003219904564152805,-0.005140688328477722,-0.01873622822144582,-0.03166609874301942,-0.040015117011431664,-0.043394544848630215,-0.04445846995818073,-0.04756417225501926,-0.056675366369174265,-0.07317881018601853,-0.09504696804157649,-0.1174410482865434,-0.13482231886768362,-0.1435117316922256,-0.1422299828071526,-0.13096215054776153,-0.10999226362954242,-0.07965626246436375,-0.04107150219204814,0.0031042482280568256,0.04914159806087452,0.09326433315145072,0.13268813601201182,0.16670667814690088,0.1966336267364639,0.22431369866047818,0.25077006315438694,0.27549268741255734,0.2959661442321528,0.3083214920841607,0.3095047917434078,0.2987835936222558,0.27735111752678043,0.24771701124898493,0.2136258095361143,0.17943392119551227,0.14847798452298772,0.12113005737083163,0.09428701577665183,0.06325998797783067,0.024959886992029768,-0.019611995135809315,-0.06539962236595218,-0.10548523648222148,-0.13375719555196355,-0.147431172274816,-0.14813054760926764,-0.14040876757196186,-0.12934493406128544,-0.11909997110415842,-0.11232214575694172,-0.11034910846876411,-0.11423943952512444,-0.12480997326179102,-0.14094794100312769,-0.1583789652751169,-0.1706953241912349,-0.1730387559599392,-0.16625826063162755,-0.15669299241906517,-0.15091588646195875,-0.15061703979060478,-0.15120650589691675,-0.1439198861458633,-0.12055905722502093,-0.07885608372745044,-0.02477136198239187,0.03017829644170533,0.07474868345631044,0.10313771897698357,0.11649865173447291,0.12057675364133162,0.12127133121932247,0.12076508665849148,0.11647721127868432,0.10296751509409761,1
-0.42333352057808504,-0.4409449596938412,-0.46235609014785356,-0.4926952883493488,-0.5250676853852979,-0.5391958947957253,-0.5099605524644022,-0.420718698602046,-0.2738081919099602,-0.09251228551424931,0.08761560590929562,0.2338215151275566,0.3286319499728899,0.37315735322446403,0.3816293695395705,0.3716246854110864,0.35585526066106293,0.34017583573419796,0.32629364137011824,0.3145491324600138,0.304953349264818,0.2974427388947425,0.2922023754431775,0.2893752231888067,0.2882565402661837,0.2872339071359724,0.2842121974441544,0.27666701379265035,0.262222287637417,0.24023765373678221,0.2124221376812612,0.18125634098002408,0.14769829968913023,0.11020320517602848,0.06607682291354564,0.014619418147761111,-0.04067742370006339,-0.09434949133340609,-0.14483617454631495,-0.19820955485921102,-0.26549626022213213,-0.3546581657437836,-0.4612306449600128,-0.5621337315981917,-0.6169659645960353,-0.5791731351150728,-0.4157453572366427,-0.13009181022958866,0.22309238276129947,0.5448523014549016,0.7254223863842728,0.6930449936298709,0.4537382759930628,0.09500133168681683,-0.2537705575969488,-0.4822739848163304,-0.5464204281748946,-0.47585336252996707,-0.3423983155879481,-0.2143338954472107,-0.12538176333505538,-0.07224038397696189,-0.03351606698564596,0.00874610729898425,0.058306435541783996,0.10631637722384449,0.14057803579243922,0.1553261651054222,0.15482090023503062,0.14911581946400823,0.1464159933649621,0.1483379890239502,0.15053734043979844,0.14681062609366302,0.13362044141710167,0.11206701412879873,0.08639014486221697,0.061486754753734975,0.041882978109095866,0.031274713628703606,0.03067728950322297,0.03623776874664627,0.03958715780045273,0.03115142375048808,0.004341098588310888,-0.04146153297540264,-0.10071080448749867,-0.16499844753927564,-0.2281240411520856,-0.28881104824031656,-0.34848928597397244,-0.40615634467793155,-0.45421633045697163,-0.4785600926058807,-0.46363000380023217,-0.39970833981192455,-0.2890692987344142,-0.14789096444336822,-0.0014876589252488907,0.1257100371901253,0.2194064637338164,0.27832131054770887,0.3103132418672968,0.32525802433188256,0.32942858327689595,0.32462412759920495,0.31127712783670436,0.2920747275547886,0.27229399432040646,0.25562416091839923,0.23974273011607414,0.21733230309679383,0.18227247073715075,0.13544405743455246,0.08558591284638509,0.04484948437952284,0.022372155625664324,0.020340630474108147,0.03456143142003326,0.057742357134229254,0.08254161382990122,0.10331773912700407,0.11656330114779717,0.12018455852151122,0.11312636790314486,0.09611728829928515,0.07177509068958277,0.04314748311582542,0.012527841498364216,-0.01813407694497495,-0.04654019407270704,-0.0701236849355513,-0.08609629890597123,-0.09167800428865412,-0.08541717851899887,-0.06872655305165397,-0.046341293722298366,-0.024949914393770155,-0.010398468996122835,-0.005318836128946666,-0.008414568822979574,-0.015503914068635775,-0.021344386259108717,-0.021103521541670348,-0.012029128658459497,0.0045379914970986,0.023038770225891323,0.036745690335060546,0.04149866534509713,0.03727122077522302,0.0275333965580577,0.017099978397876407,0.00912339447686629,0.0031968755914719023,-0.003479321688088033,-0.012601545586224654,-0.02245171531427502,-0.029232645956908686,-0.030383073466495235,-0.026335157295871346,-0.019479753482302447,-0.011927617744145531,1
0.041435716091511934,0.05212452778929809,0.06225308935831225,0.06992448069602022,0.07411606764066361,0.0752179340479668,0.07381689091291213,0.07009946833418847,0.06467831071784061,0.058603718776278735,0.052616603230439214,0.04738932705777637,0.04432307929469901,0.045417740738611066,0.052114930496905784,0.06421549258817529,0.07978653871483617,0.09600907443887695,0.11016860380754546,0.12028435533469954,0.12510785682752412,0.12374023100492199,0.11587098278383234,0.10232967144372103,0.08480273143583975,0.06519580222307611,0.04563632793575852,0.028479836655300027,0.015301474230874176,0.005677188487954021,-0.002394740990720616,-0.010721224241314775,-0.020081981699126006,-0.030318355502592192,-0.03993089599595029,-0.04593960223562622,-0.04518223607603786,-0.03752181091693399,-0.029531248132179583,-0.03411943497246657,-0.06418968790327692,-0.12388782001443206,-0.20118395424629182,-0.26432761704289653,-0.2664494088584051,-0.16127294326777217,0.07339656751296317,0.4129796705851162,0.7768814530923487,1.0463819876674725,1.1118209546782833,0.9281653561551254,0.5439564040457181,0.0821809658410848,-0.31764637304733295,-0.5624656903524501,-0.6372187489892676,-0.5913121348175923,-0.4961025006228372,-0.40394146806502096,-0.3330329836890377,-0.27891912022768084,-0.2329313986109716,-0.19143686769671184,-0.15544868244363477,-0.1269023470439859,-0.10590525596722093,-0.09053424367134252,-0.07880229402516553,-0.07021403090962004,-0.06489309200288403,-0.06215529962320558,-0.06049491898101719,-0.05808063255342315,-0.05313463625036761,-0.044769100150407005,-0.03422898646210114,-0.02502244006476105,-0.021193366081222114,-0.02544157107022235,-0.038054296208826055,-0.056352855669766506,-0.07525517451723439,-0.08914164615163833,-0.09414664464499016,-0.08989516824120675,-0.0794419352006682,-0.06699423569889675,-0.05545077710970916,-0.045604417111571885,-0.03656204497114271,-0.027028154247164038,-0.0168863966512706,-0.007293765893796631,0.0007065191264421615,0.006904808655986864,0.011449553548084041,0.014695116282462003,0.017392836268321523,0.02049954707625666,0.02520255248630121,0.032641115822374604,0.04328028032482199,0.057408393260952935,0.07547281700462187,0.09692832113671337,0.11978967392374901,0.14186542125633497,0.16150814901052096,0.17713728130393644,0.18735654971029317,0.1921622655543081,0.19363844305755207,0.19535157709182238,0.20072338175204157,0.21087310408330112,0.22327085651016915,0.23239201697695214,0.23224650624117027,0.21941458383013993,0.1949010173287107,0.16375053997277159,0.13215057706426261,0.10401975080792739,0.07980909449850254,0.05738219077281246,0.033650538903794304,0.006562571359965311,-0.02330850704091704,-0.05311496479160916,-0.08014499621324225,-0.10374417220803363,-0.12453469202563583,-0.14250424480097645,-0.1567519467361222,-0.1662445642744864,-0.17023885935414954,-0.16919389134811744,-0.16541858854422525,-0.16199984160164138,-0.1610324075471724,-0.16217308156932397,-0.16228907499879552,-0.15724392602086845,-0.1444532102255599,-0.12409534021419724,-0.09889357223755746,-0.07297675635390385,-0.050181313155498515,-0.03248892686175998,-0.019630001685250774,-0.01008368182999551,-0.002273421562672552,0.0049082590294509225,0.01224787712626714,0.020538288659281315,0.03041413689660041,0.042102723961925506,0.05534423312881015,0.06867310492934664,0.07881808256051184,0.08185160565404023,1
