0.018911067761026152,0.01863522616997689,0.01844567327105456,0.017837989390384217,0.016010353406007004,0.012349512073394896,0.006711726377600967,-0.0008307568622547084,-0.009727892863417756,-0.01860510196301776,-0.026169630988002096,-0.03206236932022243,-0.03627094294150255,-0.03839423671773325,-0.03763381119630407,-0.0331715904843345,-0.024824222834207786,-0.013581872800845652,-0.00173598609086927,0.007658212687691353,0.012121671065517096,0.010844740822978413,0.004832678045239123,-0.0037365525200505896,-0.012870718955871602,-0.021847172314032572,-0.031027204768659084,-0.04078904457660203,-0.0506991369441947,-0.05973316380098391,-0.0669629583248254,-0.07206887182061814,-0.07559318430255627,-0.07863369095416246,-0.08189660772898878,-0.08434441796874187,-0.08332650447671387,-0.07776660160731574,-0.07206322845052474,-0.07692276022059168,-0.10484214334324914,-0.16119793820171027,-0.23599498180060352,-0.30122893553885227,-0.3156037499620246,-0.2371067545215845,-0.04244396480641687,0.2532593526678209,0.58863302820347,0.8702397418287806,1.008097255695644,0.9570263098701874,0.7393821654110735,0.43358139963025594,0.13539126147435396,-0.08420186206843165,-0.2017676451020725,-0.23659769198748673,-0.22658492076119408,-0.2031433747391621,-0.18058859612979034,-0.16092544175506468,-0.1429202108963119,-0.12632722274793617,-0.11172094471720334,-0.09979886736782581,-0.09115451783821117,-0.08571365447575716,-0.08209779783272544,-0.07838488128119858,-0.07372911934538583,-0.06866431252870268,-0.06419610291224379,-0.06091564122740841,-0.05853458727284744,-0.05645075623029062,-0.0546919309916202,-0.0536378894507725,-0.05333481785466237,-0.05360375384710279,-0.05423035839641029,-0.05480634616491557,-0.05477078061993179,-0.05377491300290717,-0.051856621867361716,-0.049286264834569826,-0.046186165522963354,-0.04240997644856615,-0.038116317022437285,-0.03408384807944011,-0.031112742539322134,-0.029415818936471584,-0.02887460881926277,-0.029471432301328628,-0.03104459811353008,-0.03315959314598095,-0.03547653415689404,-0.0378413231357508,-0.04000215063736307,-0.04148720378180894,-0.04163810684680096,-0.03946755858047217,-0.03404886863688044,-0.025569962265737642,-0.015276717321500419,-0.004001444498354271,0.008588814033178993,0.023054231670040996,0.039151888339677116,0.05602740805512562,0.07281238316646166,0.08885687881542559,0.10378748473493066,0.11740862360745767,0.12969096806348895,0.14068370652799386,0.1499895247915613,0.1568473722031039,0.16088112740048607,0.16185948633118266,0.15885696485768175,0.150688845655145,0.1371205219797121,0.11885755485840528,0.09671539921675625,0.07179674240646496,0.046113897709105775,0.02208979479967698,0.0011984366461691744,-0.016659929470688895,-0.03225300647886689,-0.04600070258898241,-0.057786834432578246,-0.06713558724796635,-0.07378205753706144,-0.07778761952266104,-0.07904200917617094,-0.07770802602182281,-0.07481013817372698,-0.07153841731905607,-0.06845651813433787,-0.06563122048980376,-0.06313892570627518,-0.06128921845070022,-0.06021297370085904,-0.05931680025952304,-0.057559350680141584,-0.05422314689039823,-0.0495198145520965,-0.04452484838440092,-0.04017139502840225,-0.036726669689971486,-0.03433537340336889,-0.03303189997212749,-0.031962122818114655,-0.029692808886433657,-0.02565869517377256,-0.020386547244968765,-0.014669493597639003,-0.00929976501169898,-0.00483109484458602,-0.001326602288041795,1
0.002157369087382672,0.002421518445839941,0.0022187673929403057,0.0005577291028140722,-0.0031155538328727444,-0.008868115807466211,-0.016145710336617332,-0.024113052026591107,-0.03197502070298614,-0.0387633656150171,-0.04314144379840388,-0.04353448339463953,-0.03862496992512346,-0.028237980752198986,-0.014275712518999622,-0.00040467068248570357,0.010286414687731199,0.01693456087049346,0.019992922762116682,0.020270188409233184,0.01877167529919527,0.016148102397794604,0.012239243790494219,0.006179499807702268,-0.0027732259478038482,-0.014196571040685953,-0.026731225693392466,-0.038968932401961975,-0.04966021471633468,-0.05780702130025849,-0.06306793377857636,-0.06611347627093488,-0.06854789966284346,-0.07183418875810603,-0.0757833271557,-0.07843139761902981,-0.07773206405013072,-0.07380817450601125,-0.07102997431454504,-0.07880428489244266,-0.10836872751772648,-0.16515687420086275,-0.24088721906011462,-0.31035046753923856,-0.3349735090574277,-0.27334668497331066,-0.09855425565820719,0.18237846221031534,0.5178251796331096,0.8202475790153361,0.9968726665077181,0.9907235673416916,0.8090185378725436,0.5201961631079018,0.21954616630927504,-0.015370776407196902,-0.15259113831955642,-0.2045907333993428,-0.2057633353152622,-0.18775588725022388,-0.16781777290590658,-0.1508524503008396,-0.13636734137440126,-0.12338378475968009,-0.11222014965017757,-0.10392158584983399,-0.09862487226185279,-0.09516930149154569,-0.09227548083875123,-0.0893957334897711,-0.08642954785750673,-0.08311635956945199,-0.07904292150153687,-0.07423656098213066,-0.06937147367796198,-0.06534675044467932,-0.06265592492881726,-0.06082238101064266,-0.05878197023883204,-0.05608340495446883,-0.0532666091937447,-0.05124104192105695,-0.05051188008632915,-0.050645975994560805,-0.05077323601927878,-0.05075251019931651,-0.051043320079050464,-0.05165591496260322,-0.05215118081332062,-0.05213076643242775,-0.05133081005390873,-0.0498565177167352,-0.0481821570175187,-0.0467016293091907,-0.04554274913002776,-0.044667960646232,-0.04388270636729224,-0.04275767394963988,-0.040834847146697856,-0.03803600908891292,-0.03448603196143796,-0.030031908223141966,-0.024263943620962965,-0.01669893009387944,-0.0070341967037525835,0.0045740088360925624,0.017586600588357017,0.03122002922680106,0.04492924418415335,0.05901096666911864,0.07403606836365216,0.08981647725784925,0.10520008185286811,0.11875682013547242,0.1299818749550245,0.13947344008511878,0.1477105679690115,0.15439339631208293,0.15881755557578167,0.1603193251845611,0.15842929201184774,0.15263822602106375,0.1423144088754263,0.12720221586264044,0.10794704273706454,0.08594081710047591,0.0625951889371399,0.03910005435729796,0.01660979866940506,-0.003839868259255322,-0.021493867150163336,-0.036157308178596206,-0.04802370386780224,-0.0570969822427945,-0.06362365180674484,-0.06855188480425957,-0.07259463150628706,-0.07549461165909238,-0.07673752070717686,-0.076337214481033,-0.07466909807149426,-0.07208828009761649,-0.068703151233778,-0.06452726563934565,-0.060210076274555685,-0.05699725158053797,-0.05541735408762471,-0.05472448714923246,-0.05390821628882211,-0.05231498371757548,-0.04933914974252852,-0.044665909930352174,-0.03878788929637096,-0.03270382066944051,-0.027356099509366325,-0.023323799007832376,-0.02056676921475287,-0.018571518482673147,-0.016795912520398713,-0.014727753428074593,-0.011884352039835391,-0.008095950040695238,1
0.0065301296040625794,0.007479016372754022,0.0054030321569677065,9.022823628209277e-05,-0.007604761315804577,-0.015641499354048384,-0.021699067316331165,-0.024925623054897414,-0.026292947123416278,-0.02703025487859311,-0.02737017030180824,-0.026524115808221616,-0.023001069595211254,-0.015723033662849766,-0.00562648088471719,0.004859228835487177,0.01387632280128313,0.0208007186300623,0.02580195181746786,0.02933886195404941,0.03135699048996731,0.03084737995172139,0.02636524119979947,0.017065612652693577,0.0034416528012882895,-0.012679779021352446,-0.028663014685751075,-0.041988621240686676,-0.05132811047528194,-0.057145219886792595,-0.06128151683205947,-0.06570983679007827,-0.07133758051521039,-0.07746128149805522,-0.08197305312142851,-0.08221018988709178,-0.07694164706355926,-0.06908923451509408,-0.06704753336887948,-0.08272722001863059,-0.12515012106060106,-0.19172975989048952,-0.26278756791180935,-0.30266315910254943,-0.2683298563029371,-0.12625746246183356,0.12647449394914287,0.4477592908510244,0.7542606073437124,0.9490562881829054,0.9646150322228404,0.7966850746309847,0.5068684048448449,0.19185906852333856,-0.061904405480073754,-0.21171607388984176,-0.26403152421195036,-0.25508255227964405,-0.22366691120369855,-0.1931664007973472,-0.16955837667583978,-0.15021579140251612,-0.13259204875079925,-0.11680977853580943,-0.10413969541624102,-0.09512831578234776,-0.08905400442312142,-0.0845088820646519,-0.08018364155706767,-0.07533246324321075,-0.07010657224125431,-0.06564913429827282,-0.06310746587717715,-0.0623550159192066,-0.062056777827045974,-0.0607203619287658,-0.057724203730058266,-0.05360348038675691,-0.04928862314372022,-0.04531077749921942,-0.041870694586948635,-0.0393047016954469,-0.038060201375335334,-0.03814583271910342,-0.03895566704187056,-0.03963718657957711,-0.03954520333292147,-0.03863920379789976,-0.037391955257332216,-0.0363506515122035,-0.03605675006358743,-0.03696723348035841,-0.03902497602339585,-0.04159103165921296,-0.04386504409738062,-0.04530197735005055,-0.04580844094948075,-0.04532140424479216,-0.04335606123592194,-0.03961104832618363,-0.0346542962232832,-0.02930771485202467,-0.02345483615196771,-0.01575277331749733,-0.004722012464815675,0.009897499443868585,0.027226434884025957,0.04627422310236758,0.06618419509939878,0.08609187972876584,0.10520769925742211,0.12244652835188863,0.13635699000056933,0.14625449101175195,0.15313068986362216,0.15890266382315668,0.16474964981471188,0.17032219011960323,0.17429016467763633,0.17514314855295862,0.17148771686161346,0.161971811402547,0.1457157280088225,0.12347056433349582,0.09756169098066153,0.07042493306612434,0.04412988328246041,0.020397413946536182,-0.0003710564087009323,-0.01924547037288314,-0.03707930452608206,-0.05322881789247494,-0.06630917484447407,-0.07569365109001581,-0.0818270895331262,-0.08558890992894996,-0.08778066556841287,-0.08893227724821065,-0.08938427448137644,-0.08922604921612699,-0.08815731830151347,-0.08585310365082727,-0.08245086834060412,-0.07867493714042074,-0.07526282121381682,-0.0722032295560616,-0.06900528032993175,-0.06521714490882677,-0.06041527701970597,-0.054465580194656034,-0.04797264140265506,-0.042119769553086314,-0.03758756618843548,-0.033875848986267165,-0.030217984056477225,-0.026322711835611152,-0.021828180559485974,-0.01610957475809307,-0.00927154587657596,-0.0026730877506567514,0.0023287453984086968,0.005686181560261771,1
0.004305288978794599,0.004971081913455646,0.0046852417674670644,0.0018919171250424275,-0.0035575200141475184,-0.01067399139354835,-0.018232272217782976,-0.025384054491182667,-0.0317947878977601,-0.03754421338952895,-0.04243022081587304,-0.04533988779245732,-0.04475327727343114,-0.03960852199569378,-0.030032584625529716,-0.017860484119178826,-0.00613233396268501,0.002364278066560651,0.006822647549983952,0.008989470567496242,0.011205855910566914,0.013807418451723303,0.015066368572461655,0.013175263841322865,0.007286146310787165,-0.0025905285421825236,-0.015251799670445603,-0.028433010000837235,-0.04022995288813173,-0.049830678010721156,-0.05679720067923214,-0.0610719020451835,-0.06388920892188825,-0.06704090606600548,-0.07076789599240906,-0.07327058811438253,-0.07247747408975727,-0.06844780025847014,-0.06554368724830893,-0.07325609014715473,-0.10295107418887868,-0.16001653479609104,-0.2355995698332845,-0.3033976874224512,-0.3240350996724999,-0.2565781945685526,-0.07622048400320455,0.20672219087955793,0.5378675478008301,0.8293637325901513,0.9904697588341793,0.9676528418112204,0.7724873431753279,0.4769863586978958,0.1771455683001218,-0.051535784818838026,-0.17990543691842606,-0.2225314115009524,-0.21534042619905178,-0.1910860734500461,-0.16713231776844892,-0.1476213257122674,-0.13142128951382603,-0.11750459238968963,-0.1061797474972483,-0.09819219180093738,-0.09337924720885002,-0.0903233574244509,-0.0872631618377978,-0.08310950169635736,-0.0778654756009397,-0.07232708773380861,-0.06746759119974881,-0.06395874209978673,-0.061816467640997644,-0.06052033972540573,-0.05947828665459055,-0.05817628118401297,-0.05635224869284805,-0.05436741900961683,-0.05276846358926643,-0.05146398170357305,-0.050103609492404874,-0.0488602652106838,-0.04826600257838301,-0.048511254838121104,-0.04914369514320518,-0.04969702627586937,-0.050234253025525366,-0.050908830820879374,-0.051437942153251655,-0.051326954529443976,-0.050514149558800917,-0.04945593568638419,-0.04861994172895504,-0.04819353765874793,-0.04802517701280786,-0.04750079491977884,-0.045705864683865054,-0.04215753527655801,-0.03720226952399935,-0.03134636108646804,-0.024688183856493524,-0.01723162607116519,-0.008976931401793948,0.00037703894842124573,0.011308489425892838,0.02412748042208409,0.038563766911081064,0.053801306174181954,0.06941793330440048,0.08548831393121006,0.1014411593783401,0.11593056182746378,0.12782507109943378,0.1368787245857127,0.14368559359583818,0.14887959080502944,0.15254095214638466,0.15445967280561157,0.1542942245054556,0.1512744336353583,0.14436412384241928,0.13295461039220718,0.11695811625578781,0.09669412449322498,0.07335382823442611,0.048948143775278646,0.025318117848902765,0.0035540627080196535,-0.015535987958758355,-0.03128615229634886,-0.04388288291902507,-0.0541887304064552,-0.06260168657441964,-0.06892017942932249,-0.07325584236156193,-0.07628732539899166,-0.07841872378678859,-0.07926881639002373,-0.07848126128748253,-0.07657354560432487,-0.07445339605006433,-0.07236318279766993,-0.06952917510791046,-0.06506590847908057,-0.05939836274564239,-0.05401443994152276,-0.04965887092840865,-0.04566972739829653,-0.04101977620796448,-0.0354425791603947,-0.029542449757542926,-0.02422541861730154,-0.020130264503159717,-0.0172231404443076,-0.014980501382265515,-0.01300581587143048,-0.011214871888140444,-0.009524586161869165,-0.007541711896560064,-0.004744605206101492,1
0.001217104232771307,0.0030539441250263142,0.004348318253207822,0.002773856414672522,-0.0022773989255912516,-0.009540150059258911,-0.017310750550274086,-0.02436008762608445,-0.030077775408197737,-0.0347201644159537,-0.0389431785134744,-0.0421941607571547,-0.04225547189353422,-0.0368795704544882,-0.025752409307727035,-0.011215016883162461,0.003074403995845268,0.014326672373007977,0.021622903318723692,0.025668028403775196,0.027578770206783707,0.027426757443982003,0.024401861848049853,0.01828989867889877,0.00986518535596222,0.00012297191916341328,-0.009979355660194051,-0.01960147793767809,-0.02839020434970384,-0.03603667706976175,-0.04158661231958829,-0.04431768416943691,-0.045205054488749875,-0.046402629773215506,-0.04921364301497587,-0.05284683224614322,-0.05471495934872185,-0.052727315720982756,-0.048690868277334924,-0.04980049259923688,-0.06648412987127025,-0.1066633768683468,-0.16824071551966652,-0.2332496074838155,-0.26715122735960245,-0.22703023577049275,-0.08010869819937172,0.17349892021449637,0.48685993221095836,0.7735880058209743,0.9389289367816952,0.9220673059803307,0.7270090349892124,0.42228123296725123,0.10712538935175646,-0.1354301214856259,-0.2699808709002297,-0.3097307278877215,-0.293411348734327,-0.25781357493431617,-0.22320374532023152,-0.1942494389411916,-0.16851346783813825,-0.14420325703507392,-0.12248253813795142,-0.10537598026226505,-0.09347922263148345,-0.08539384833434394,-0.07862402301792638,-0.07127461294373558,-0.06325698060183367,-0.055766136822757224,-0.04982907663783681,-0.04568579719432427,-0.043040699240240406,-0.041506336122816206,-0.040723736030497545,-0.04016877575955538,-0.03948230015243999,-0.03879329161199902,-0.03822800263098732,-0.03746414042067307,-0.03613872545675358,-0.03465075879647617,-0.033990093290930626,-0.03461092389778613,-0.03602434131269463,-0.03730250398719863,-0.037673841957278985,-0.0370258046570481,-0.03597096214181994,-0.03555307655653072,-0.03688912485738437,-0.040381904451445017,-0.045026079802191483,-0.04891317806274134,-0.0504477040500134,-0.04893854953030071,-0.044457997522471815,-0.03772865725903654,-0.029988852631902912,-0.022227237602401258,-0.0145892919519784,-0.006984047883179972,0.0006309673431096653,0.009033285789260236,0.019621822761957078,0.03330304864503614,0.049929847518440165,0.06848175501459475,0.08754408268987011,0.1057372058206458,0.12195012398884857,0.13539421767783044,0.14575892428292747,0.15359950165782377,0.16000240712175484,0.1654920970998372,0.16967112533691955,0.17163032854805513,0.1702791035220602,0.16470295589869413,0.15441008783926508,0.13915584306487136,0.11884094503026081,0.09399278452036977,0.0664169315499468,0.038863411475546325,0.013596989487955097,-0.008500819395010729,-0.027502242174417865,-0.0436662816555574,-0.05713779622341086,-0.06806419923897236,-0.07679631656096406,-0.08374256918947623,-0.08902369068487037,-0.09272856903651581,-0.09532713928465843,-0.09714927056747368,-0.09782766778847314,-0.09688016593035544,-0.09439386708112493,-0.0908474474515441,-0.086691973267335,-0.08192237896809201,-0.0759262978220248,-0.06834679920222418,-0.059993341917420694,-0.05234200357709104,-0.04640818236496648,-0.04240240754604742,-0.039894393340371696,-0.037946290296760984,-0.03527706951868984,-0.03082343789979226,-0.024663891277712457,-0.017960956265871766,-0.01184739748441796,-0.006637718523233515,-0.0019007581380305755,0.0027170729349668705,1
0.004721218748809811,0.0026899155288645517,0.0006253052439230487,-0.0013823131854931883,-0.0039022337948532706,-0.00792852337173835,-0.014015674507259752,-0.021656977507684985,-0.029721928328143875,-0.03726736170293543,-0.0436239821522893,-0.04769884579380819,-0.04791484374702551,-0.0431543959051328,-0.033181681309551944,-0.01892027712762349,-0.0031934835191136167,0.009966423272253066,0.01778867330817893,0.020242737641136287,0.01883711358248289,0.014691578694948448,0.008145051838049967,-0.0005063374912357308,-0.010559760302936412,-0.021231233989050663,-0.031992794241202216,-0.04227845571005088,-0.05124717899461851,-0.058287782183114194,-0.06351993334521897,-0.06767696704961693,-0.07178560690292787,-0.07624992006165916,-0.07965667859032655,-0.07951728020011452,-0.07489206146298648,-0.06841181385757224,-0.06690252075930887,-0.08054643542509456,-0.11869299360157202,-0.18221794617867731,-0.25667972974636033,-0.3104932189596369,-0.30077243108855034,-0.18850660926747873,0.04029045744035268,0.35695744922770645,0.6875993835113289,0.9338977947624054,1.0136494617590435,0.9007511341738151,0.6394813751997962,0.32189476273301776,0.042122362933860506,-0.14288816370245036,-0.2260151990608572,-0.2363719057144742,-0.21308460968542445,-0.184032607792947,-0.1600382884525202,-0.141249547276313,-0.12558790300403924,-0.11246518306540854,-0.10217258495370696,-0.09485894605169644,-0.09042605968424282,-0.08827544885228367,-0.08693658214443431,-0.08458171561112145,-0.08032064858791818,-0.07482602456986087,-0.06957159393303315,-0.06550543324315342,-0.06230628298613191,-0.059064693851117754,-0.05565634324890492,-0.05271154150690707,-0.05044728752725704,-0.04873318974093809,-0.047955264900638075,-0.048346518178048886,-0.0489405909925503,-0.04851554218083396,-0.04699214791792067,-0.04513609248115625,-0.04354577226079986,-0.042334536105897394,-0.041355635013481974,-0.04049145325051828,-0.039892775698218017,-0.04005877008124134,-0.04137330967973945,-0.043266448582236744,-0.04431507323839903,-0.04356977461755249,-0.04134650438910041,-0.038572162699228384,-0.035890713624009245,-0.0334933062629976,-0.03123895621948897,-0.028545072143640778,-0.024357393516249687,-0.017648421619593156,-0.008045854877997052,0.004001888840048042,0.017652479968149476,0.032484564250208764,0.048674059748183916,0.06604375540198885,0.08333985350495558,0.09890274507113662,0.1120336652609995,0.12320090076012238,0.1330125872732707,0.14191874737167542,0.15048129624217316,0.15861948916256194,0.16478623963877054,0.16667956954469784,0.162690256153577,0.15267572672077145,0.1378082428210617,0.11990048278565293,0.10053933509906673,0.0805299761222091,0.06017537890748478,0.03971910605352365,0.0194221167824771,-0.00021550896585681434,-0.018296742805502475,-0.0339786710493343,-0.04701315877061977,-0.05766593655505622,-0.06605402128782989,-0.07178352081673754,-0.07467745911869489,-0.07543507934145564,-0.07529520530522867,-0.07551638132306705,-0.07678167389572199,-0.07868754472176448,-0.0798348405908966,-0.07862921738492572,-0.07472645849393801,-0.06960184991025543,-0.06516673971937136,-0.06215408036667626,-0.06003682556423283,-0.05787191490490648,-0.05497045740172329,-0.05119873428333653,-0.046707245628437255,-0.04163826173230657,-0.03641961441939173,-0.031547697066508396,-0.026904286638007,-0.022110285002724134,-0.01718590499206684,-0.01235419289312751,-0.007692831584631427,-0.0031690422537189247,1
0.010441617311321885,0.01060339892590926,0.008811019616230622,0.004171919174561679,-0.002947441696967918,-0.011644161349761742,-0.0209203253497288,-0.029828173530998415,-0.037805630201208834,-0.04434411405091816,-0.04828537638357972,-0.04790294913067477,-0.042083911364217096,-0.03158367746742491,-0.018723389844442162,-0.006165039464011689,0.0035956166814157782,0.008824603372536193,0.009656062897968942,0.007730690185032996,0.004549744115166048,0.0007743230215128674,-0.0037082228865368263,-0.009622387451351402,-0.01751037004137778,-0.027013219779214375,-0.037153270109270026,-0.04683692561880049,-0.05507087190337495,-0.06142962301377166,-0.06633020754615329,-0.07044559057713864,-0.07422761234137844,-0.07794688140878372,-0.08087708541573171,-0.08058683049156809,-0.07538798050741971,-0.06859485489973702,-0.06987943736682363,-0.09163851428420865,-0.14154402099699295,-0.21480698748766672,-0.29023797055625544,-0.3317549388280164,-0.2962524613706957,-0.1496105026906678,0.11205273736458961,0.44704343988993717,0.7717050990758961,0.9881254467607429,1.0263312140277963,0.878086010336321,0.6006705814592521,0.28775481053595414,0.025840244402949512,-0.13888220549442745,-0.20809421630675845,-0.21430071164375566,-0.19428655453663107,-0.1710062690313939,-0.15163072767705368,-0.13566250544168926,-0.1220118401532125,-0.11092714974401083,-0.10313192550896227,-0.09843933870654137,-0.09538078912750092,-0.09218542004017594,-0.08797248404826025,-0.08327413814393862,-0.07929817248195575,-0.07646667249408196,-0.07400647384587697,-0.07092116624140886,-0.06702366474419032,-0.06301186149672272,-0.059854285739116844,-0.05808078538975393,-0.057218470455564135,-0.05618460477273783,-0.05448175985664228,-0.05258637816354357,-0.05141282676523236,-0.05170277749490826,-0.05352746934016714,-0.056247530327609374,-0.058841626895094035,-0.06025325535761171,-0.060028251857652266,-0.058716124004049935,-0.057274108377283584,-0.05623471084648614,-0.05549483668844875,-0.05454597691486996,-0.0530117232669886,-0.051169541602422514,-0.0494061869364176,-0.04723391845000076,-0.043852073096101674,-0.039338235300778464,-0.03431627669859361,-0.028813177810087912,-0.02206542279340044,-0.013393568462229858,-0.0028134709159348924,0.009264842080239899,0.022465493939079116,0.036735910349769946,0.05232998634607845,0.06911981335640165,0.086160289847642,0.10226305829685664,0.11699389106751659,0.13090622308670133,0.14445977346836877,0.15698824563138553,0.16717701618146205,0.17407683282621064,0.17711811610606845,0.17567990407320083,0.16915472467387682,0.15744292616969965,0.14128832481253104,0.12170711343650459,0.09945433500206653,0.07548440524015507,0.05109787046094802,0.027526805782583725,0.005808289189372949,-0.013462391037528457,-0.030440923456185754,-0.04552982311263509,-0.0584127740150123,-0.06813688531566504,-0.07420805226339737,-0.07702065580712021,-0.07749399632325732,-0.07675628733728145,-0.07577197567456194,-0.07503743681582668,-0.07466775075537854,-0.07449976233590844,-0.07394364582783794,-0.07207557122085649,-0.06838701697393597,-0.06337196884043202,-0.058130818287568706,-0.05367707992609809,-0.05046266845291592,-0.048009847935268996,-0.04536423205115335,-0.042151306270719745,-0.03857008014660286,-0.03445655244386986,-0.02920645905753466,-0.022928266666879277,-0.01696192576817522,-0.01245898219883786,-0.008984356066018426,-0.00539334436368903,-0.001663967700405328,0.0010947486820939885,1
0.007722251364612078,0.00025305536426317547,-0.007569817499820974,-0.014864324870445955,-0.021116132294159682,-0.02641368820468691,-0.03136005380186111,-0.03661342225811496,-0.04260029111641907,-0.049132027618936654,-0.05464197024270969,-0.05624492802301369,-0.051654062522241286,-0.04096889564680969,-0.026521844586541363,-0.011837594486325676,-7.305413991031025e-05,0.007559865509840968,0.011723405969321313,0.013806966158984229,0.014935744403779773,0.014956671475865577,0.012222706683899714,0.005211726681822166,-0.005677030633422963,-0.018218337513729085,-0.029854169794906484,-0.03897564792798814,-0.04519212696025911,-0.0489017954181398,-0.05077386566658515,-0.05155266936003002,-0.052279636027382184,-0.053899345819272054,-0.05594375927901761,-0.05625817357817175,-0.05284998407566204,-0.046751444480682754,-0.04436819403169839,-0.05686140328243499,-0.09410771421162711,-0.1557043122537845,-0.22499548487131715,-0.2689336743745752,-0.24514953337694487,-0.11847250300299916,0.11730220854879252,0.42443875635183415,0.7238248079320264,0.9199084369009136,0.9422070407067188,0.7814569675344969,0.4953853876803719,0.17910904165559566,-0.08000690657490686,-0.2362124092053336,-0.29290924073576363,-0.2851558010167803,-0.25193825699755173,-0.2173325548283855,-0.1885091266268916,-0.16368393567024053,-0.1401436885770411,-0.11777347981758088,-0.09823593607606301,-0.08263979883613347,-0.07080535982722594,-0.062232777516766966,-0.056486313151145426,-0.0529510485128773,-0.05104280950633588,-0.05016445886755727,-0.049451742808722464,-0.04812806061169602,-0.04599225709375573,-0.04325552371775938,-0.04027188816377661,-0.037644884152490336,-0.03599294821691949,-0.03566118297033121,-0.03670033836969602,-0.038547846009515586,-0.0402051382207347,-0.04113107413368873,-0.0414229941628921,-0.041457408514241366,-0.04173808584035147,-0.042463831766468146,-0.043470810872624915,-0.044766769053722955,-0.046246485594740795,-0.0473873475411095,-0.04793567720419363,-0.04807852572502076,-0.04776929929878226,-0.04666076194224626,-0.04475289163411559,-0.04250620276104324,-0.04023597107948984,-0.03768939898057024,-0.03422259955256972,-0.02922594887257379,-0.022303997562526656,-0.013461098751191438,-0.003174556091680946,0.008309445202990932,0.021466185179455546,0.03662975066431655,0.053050614258236664,0.06947454579614125,0.08532419748179568,0.10068175036805477,0.1155798696537956,0.1298217271332879,0.142979928600394,0.15440140787590356,0.1634251743970307,0.16963320746487276,0.1729250151620348,0.1729941004064982,0.16897190611969598,0.16015779497276283,0.1463744811415553,0.12767350036733477,0.1050530651637805,0.0807335923070576,0.05647787234112729,0.032779828353977615,0.009959601039367792,-0.011483078962143387,-0.031198816479905196,-0.048423791310476846,-0.061802509473098344,-0.07062198344168702,-0.0757815290116369,-0.07907872579230613,-0.08171972569629181,-0.08389322335031184,-0.08546463287538775,-0.08620278492646036,-0.08555949547321656,-0.0832207877553719,-0.0797344016285823,-0.07602863719506069,-0.07252929462613275,-0.06891612321564208,-0.06463200262754078,-0.05961204111140344,-0.054325121268899754,-0.04921443353908924,-0.0444465669052879,-0.04004253456560436,-0.03596902554719637,-0.03205805902556003,-0.02791130351804228,-0.023188860151511226,-0.018106790561353604,-0.013106104837273777,-0.008225582813278173,-0.0037069513913727294,-0.0005402104877507297,0.0006204278138301714,1
0.005357038869138586,0.00523260928998532,0.0027119354052975745,-0.0023047054350486974,-0.008868304561589335,-0.015969647526689012,-0.023257612846602316,-0.03081102841348187,-0.03830112980799945,-0.04437430457462195,-0.04700281031824089,-0.044615851028661835,-0.03703004295323832,-0.025695657231684963,-0.0132897554333253,-0.0027470905327479146,0.004054617687513544,0.007256230340616324,0.008578708663614038,0.009745111940069287,0.01125625626906768,0.01208551957747171,0.010317841105870557,0.004706727446897224,-0.004500945950943249,-0.016367433997851268,-0.02960548826437288,-0.04207335787085885,-0.05164551094915167,-0.057942756617375635,-0.0623428311793236,-0.06634747250378904,-0.0704132923353496,-0.07408683132572522,-0.07647340554626751,-0.07619125772852424,-0.07234461109573982,-0.06769211931453732,-0.07077224931835562,-0.09339951818889042,-0.14376550138811695,-0.21799034444310247,-0.29467115056898413,-0.3363625972963729,-0.2993005320211758,-0.15072382845408133,0.11105629795707089,0.4438581537608107,0.7657686170939069,0.9805431034837699,1.018001396336083,0.8688978029798893,0.5907167886717636,0.2782897813764633,0.01818051142447561,-0.14479429413864942,-0.21345909565463858,-0.22026789963662716,-0.20123410636904204,-0.17874759213107727,-0.159681650546674,-0.14307054139814157,-0.12777854565237418,-0.11460512825735653,-0.10453359907920398,-0.09756050629789875,-0.09295095116674973,-0.08969933390415369,-0.08696577369448845,-0.0842166274346067,-0.0808491707636889,-0.07618664160652229,-0.07041068447465797,-0.06499442493996087,-0.061351693121985705,-0.05939734854422105,-0.0579122233511624,-0.05594444773820279,-0.05364277952584529,-0.05163529565867982,-0.04995242548648138,-0.04823939218395949,-0.046445847243197634,-0.04475931619579073,-0.043459919303546916,-0.043057146145053175,-0.044062415209569876,-0.04629763578656313,-0.048688610871483726,-0.05006019919074095,-0.05025153250275363,-0.0501478779230683,-0.05031102762570856,-0.05032691155889628,-0.04966779348297022,-0.04817409184288192,-0.04592933700336799,-0.043414545612799886,-0.041052808752543725,-0.038321464970054564,-0.0342439563279771,-0.028487610464173377,-0.021324772847296065,-0.013012272740559667,-0.0033105704911760066,0.008269986497476763,0.021424559104040543,0.035192201970059296,0.049159693955314374,0.06341551445014665,0.07804480593891477,0.09315024422684798,0.10822037802823634,0.12194385009873732,0.13357088508123463,0.14337364235103742,0.15139833689369236,0.1570523927728011,0.15992647509540533,0.15982742414430995,0.15615360074132803,0.14817369213097734,0.13585949796602712,0.11998142800353528,0.1013904046645657,0.08055156131306762,0.05796614200069185,0.03470619599702785,0.012093548360700028,-0.008869647552061783,-0.0273322709744778,-0.04257243073563918,-0.054584956927998,-0.06378301684466203,-0.07020664161790065,-0.07405151064343,-0.07636476329574102,-0.0782988857472249,-0.08013294600870607,-0.08136110585930525,-0.08131969862442866,-0.07949424386039455,-0.07580295481001305,-0.07092465621916355,-0.06594992991238771,-0.061679006178236497,-0.058115445549931304,-0.05444923755301535,-0.05008638055496671,-0.04537343640921319,-0.040648809865677094,-0.0357013272425342,-0.03073663407092693,-0.0265424610167446,-0.02331669214860433,-0.02025463089640857,-0.01655601656438618,-0.012493081877872228,-0.00910028495990782,-0.006894137575056834,-0.005414480284520401,-0.0037493480450503623,1
0.004808022575082217,0.0026993232624248848,-0.0014990491492638406,-0.007730468452793535,-0.015452937714958452,-0.023756409007248874,-0.031691525529288764,-0.038938558246458886,-0.04557840184184457,-0.0512520884578796,-0.05505942588652006,-0.055882862195350796,-0.0527319494377756,-0.045569679361893524,-0.03579210800146761,-0.025355031759435147,-0.015788463842474385,-0.0080388858824326,-0.0022879826103071217,0.0020863254841481157,0.005627537711654496,0.007997651138821714,0.00830003733364417,0.005697955137797324,-0.0004084296690148167,-0.00993117954748229,-0.02136878297584086,-0.03228594164393084,-0.04088648584429564,-0.04680890283290415,-0.050642714332884815,-0.05330113896685051,-0.05597295491962473,-0.05963642692629565,-0.06367591717211009,-0.06557604524430506,-0.06305237989085613,-0.05726781566527925,-0.05464669691504146,-0.06574274365488324,-0.10081660971499529,-0.16270095289336345,-0.239589297601017,-0.3021818208856841,-0.3086981208582555,-0.2185641722309941,-0.01227998958022721,0.2899871189041138,0.6226698525940205,0.8909282894762958,1.007142592405687,0.9319610039477425,0.6954397116584421,0.38242909937244723,0.09012291294217532,-0.11513893779818929,-0.2171051005967006,-0.23958464930780593,-0.22072185355890883,-0.19084397711275167,-0.16446370946714733,-0.14413426798433676,-0.127868576083094,-0.11406010803094682,-0.10276110466002891,-0.09470682387549606,-0.08977303591131591,-0.08655236948568754,-0.08332794544536384,-0.07919655768796746,-0.07443572489982155,-0.0697319983776936,-0.0652690405570069,-0.061172070271419195,-0.05800793179662008,-0.05606939786279556,-0.05489960978521228,-0.05365781871056906,-0.05166520714535203,-0.04890789476224056,-0.046044651687045614,-0.04394422694547877,-0.043212641318790004,-0.04382173461435732,-0.04527460564129399,-0.04715690271513086,-0.04923029259816219,-0.05112866570957368,-0.05239329749411818,-0.05288503316869584,-0.05281015273785531,-0.05253532137678565,-0.0525403099886753,-0.05290405468362444,-0.05310217169571801,-0.052692410164776105,-0.05138391368376379,-0.0485953459902468,-0.04397718332128118,-0.03819257064421913,-0.03255622301321087,-0.02780708381323001,-0.02322409916252695,-0.01735536557026014,-0.009647745429193007,-0.0003883583711502339,0.010607114510186567,0.024022856856805767,0.04000832388785651,0.05771644007395138,0.0757340949038138,0.0928216994034458,0.10845776204634541,0.12261085446608146,0.13486984321465423,0.1445259421859542,0.15170112526143661,0.15735124430164926,0.16193527589082016,0.16474155201830376,0.16438498099435025,0.1595427350115337,0.14934205537988704,0.13362815458788796,0.11323254702608043,0.0896610084624229,0.06469198793653233,0.04037174536161353,0.018450304003953102,-0.00047004286351233493,-0.016969183503399474,-0.03199798718316241,-0.04572594246004552,-0.05735946412188468,-0.06641223241139246,-0.07327344384342711,-0.07825161875212827,-0.08114575514920834,-0.08188605939641455,-0.08085754098812152,-0.07870127256380276,-0.07625715346749344,-0.0741931067206102,-0.07240719067236495,-0.07035937567632501,-0.06764259181245529,-0.06404698878222007,-0.05976560310779192,-0.05536863560698706,-0.051272042238125586,-0.047404932254523406,-0.043290305289939816,-0.038579745937727734,-0.03372447517632252,-0.029567297462853928,-0.02608508686409102,-0.022383473937937787,-0.017988600575983997,-0.013381214837450526,-0.009435380595404008,-0.006625854798295781,-0.004466731141398783,1
0.00993953666345456,0.00764385864581606,0.0028627980997491197,-0.003504860367194319,-0.010404377928806724,-0.017302862193681514,-0.02406711201547626,-0.03056834057879431,-0.03669446010277142,-0.0424504501650039,-0.0471778784611357,-0.048784396447730125,-0.044991105230477786,-0.0355947507227322,-0.022849346161104615,-0.009877710590674832,0.0007157790574423726,0.007566655976055406,0.011069166295971038,0.012804455740807512,0.013862345086615269,0.013903880306936678,0.011756035269693993,0.0063940383479995765,-0.0023790026779843204,-0.013622743813406038,-0.025841283724322678,-0.03779703617872615,-0.04853148328606377,-0.057081767412711586,-0.06277723235973566,-0.06633362126179139,-0.07002222166105575,-0.07546324824676892,-0.08133263156469694,-0.08395865028371037,-0.08076926060570822,-0.07412102089855849,-0.07279773368615607,-0.08952312469699635,-0.1342901888536245,-0.20558610734072438,-0.2839752723601997,-0.33270630377780086,-0.30691607063190907,-0.17020451498298433,0.0845833286595478,0.4191892462385856,0.7514963087198835,0.9816852435614605,1.0346381188917637,0.8960997664540249,0.6197043438316281,0.2996111115175752,0.026184594992381943,-0.14935021129109913,-0.22493379365352584,-0.23229551364365864,-0.20999461042416567,-0.18355775781196398,-0.1620379454952437,-0.14536713673240012,-0.1316709992134521,-0.11995108610531846,-0.1099110395026431,-0.10148037461849055,-0.0946951826607012,-0.0892642500024486,-0.0843565988780212,-0.07943460381010958,-0.07457873746750394,-0.06986941268280615,-0.06550038738207845,-0.0618885484922616,-0.0588504824450992,-0.055686739842036835,-0.05242154458701562,-0.04990387785051344,-0.04863482329282805,-0.04833017550226416,-0.04840574550003126,-0.04827693605933923,-0.04760275795089168,-0.04666537131909724,-0.04598320914303793,-0.045637177606348216,-0.045753575849081816,-0.0469123128238301,-0.04925445507376771,-0.051869866628269215,-0.05342589379207713,-0.05326751397225447,-0.05186873993535981,-0.050150404050524754,-0.048647082858597146,-0.04743793018244786,-0.04648743901688027,-0.045819284910175534,-0.04533174369844531,-0.04437538841679342,-0.04169996683884679,-0.03635949999828936,-0.0285185658086925,-0.018701380891652155,-0.00705612785480015,0.005900920806515353,0.019262511593676326,0.03286064142584301,0.04723221592270381,0.06278476594725077,0.07929007739588821,0.09563263972989379,0.11051961005728732,0.1236917142041029,0.13585349663636329,0.14733901565670302,0.1574265939668125,0.1650513610029627,0.1692408485422539,0.1690174003217755,0.16400583983592976,0.15461892925346263,0.1411947120433649,0.12392776339042509,0.10360622768753235,0.08143932152717845,0.05837926733596564,0.03524832174643992,0.012927985614163598,-0.007986436020508823,-0.02711010906604709,-0.043858546970879306,-0.057343051998003235,-0.06668331748640122,-0.07188673278207236,-0.07425918738308224,-0.07538861300801017,-0.07630459334949269,-0.07773543168689917,-0.0799862718813264,-0.08242910766223113,-0.0837611979280609,-0.08280565290070864,-0.07910519698583339,-0.07310162152943722,-0.06598590118385322,-0.059193250956266374,-0.05369091579452603,-0.049547478734962395,-0.04621898685450904,-0.043123248449136155,-0.03973885761145358,-0.0355954895521746,-0.0305411221712687,-0.024742862953690783,-0.01868057872202157,-0.013375141338515141,-0.009769788507548614,-0.0077988813218599125,-0.006688452262676321,-0.005724212926075558,-0.00434466967408613,1
0.004429622166242925,0.004443203795166645,0.0021074407306133657,-0.0027203657603112265,-0.009129001746192163,-0.016043358432349667,-0.02282908032574545,-0.029180032510276108,-0.034973593618157404,-0.04025637732148979,-0.044540685830599634,-0.046140607687732774,-0.04313983426717331,-0.03513781888931266,-0.0238949339057354,-0.012294785887841227,-0.002436348434527163,0.005154698147389402,0.010725163780853718,0.014714928411252513,0.017643059030840652,0.01932099232789751,0.01845921607333916,0.013965933156543663,0.006039581280961753,-0.004416105770984111,-0.016139064331949084,-0.027171700785828957,-0.03582806488568633,-0.04202886273176801,-0.046660322669812654,-0.050321550720727797,-0.05344943914668571,-0.05662763697631174,-0.05994790497601288,-0.06217815233562928,-0.06103285342306643,-0.05577447033769976,-0.050902990793672435,-0.05682859166673264,-0.08526547993269455,-0.14091877971042088,-0.21361058153255513,-0.27547977456754275,-0.2855131989237499,-0.2024226394478935,-0.005098970732971315,0.2873045308785577,0.6093448384656269,0.8664907461695659,0.9720866525793549,0.8877218398210899,0.6437715243166411,0.3249230211776361,0.028942985025323494,-0.17587237616287565,-0.27209496408615075,-0.28529757647889875,-0.25687512498164367,-0.2191491630754625,-0.18670691950983848,-0.16113686057025045,-0.13973205052667415,-0.12121697553266367,-0.1060892701902724,-0.09452475676134514,-0.08562606774780858,-0.07817358726264811,-0.07154697767948828,-0.06582172814102909,-0.0610093606344144,-0.056766123445294456,-0.0529336848555942,-0.04987001882250258,-0.0479687236459455,-0.04685996490019735,-0.045607746504881475,-0.043799704361164246,-0.04179305527547613,-0.04002030454116434,-0.038592771917213234,-0.03744516366374748,-0.03666083951062071,-0.03670428302027289,-0.03813856147705134,-0.040869562498681115,-0.04385416850433069,-0.04574734403619246,-0.04592793465894826,-0.044895461190516114,-0.04356441577328856,-0.042428753144347214,-0.04153145620615718,-0.04091622391434377,-0.04092438983622247,-0.041875431582996905,-0.04339359258048513,-0.0446051355491011,-0.045043570367444274,-0.0445672974300437,-0.04260029825768057,-0.038275204201214524,-0.031194829550748832,-0.021788640234861156,-0.010950260590641142,0.0008887964847459975,0.01418874398384323,0.029479657259526962,0.04653878046977247,0.064695263907177,0.08328385799419254,0.10133424863411684,0.11749140531729682,0.1308898539366383,0.14169317438267212,0.15059948081063365,0.15813437520097062,0.16440585581053876,0.16923024671491704,0.17177631938499702,0.17044274191895156,0.1639909359691673,0.15221345467810404,0.13537536847993006,0.11392879988929291,0.08888238341564568,0.06213116954585571,0.036190024044555416,0.012995658504149996,-0.0069779136469928366,-0.023949779896747785,-0.03813465297079337,-0.05010715466124606,-0.060444963809551736,-0.06917098825078258,-0.07626486706145784,-0.08162811103429728,-0.08463246737905031,-0.08503444024528602,-0.0837634251119487,-0.08210150527350035,-0.08075397960760525,-0.07983510839885334,-0.07915370752496628,-0.07831697308131363,-0.07689593959992157,-0.07464390967345123,-0.07123654969053361,-0.0662800379163259,-0.06015118343947936,-0.053829135413799724,-0.047809082129338674,-0.0422998522357842,-0.03764613424177008,-0.033620273848514,-0.02937823920762339,-0.02451821234939833,-0.019372333400947662,-0.014352320852212134,-0.009572969268111272,-0.005000165008936099,-0.0007462366149618063,1
0.002385419221052058,0.001997385669935371,0.00125097984288237,-0.0011264255757235213,-0.005986997293031255,-0.013428066939808024,-0.02242419890281202,-0.031203728017437333,-0.03863329776390191,-0.044378598187297204,-0.047498101201129676,-0.04617870310407753,-0.03947729666650094,-0.02849950760075408,-0.01570000451715621,-0.003838155114878255,0.004729138925590008,0.009161214077016977,0.010725303341388309,0.011524816376786156,0.01275323297842507,0.014033214635013327,0.013618849389969125,0.009355554321527636,0.00018799477181794585,-0.012966365859948176,-0.02773164064847191,-0.041555526516721994,-0.052647648460130814,-0.060157715683204806,-0.06431731631266331,-0.06675051305998321,-0.06964357349009706,-0.07401344707049264,-0.07895910424119211,-0.08203404976141954,-0.08076137961903264,-0.07609163994123988,-0.07535983807605537,-0.09067272420096678,-0.1324206213969226,-0.2008295202362752,-0.27947992650367964,-0.33465001760443014,-0.3225380971000687,-0.20442338657257683,0.03306218381299118,0.36048869540562783,0.7028402046622869,0.9607543776080051,1.051440139386091,0.947715701523426,0.6915783715515362,0.3732446640353879,0.08726226482360921,-0.10738650957880916,-0.20142811108675523,-0.22215516579615746,-0.20713745702225067,-0.18346656109451115,-0.1624814494030305,-0.14535489826535347,-0.13049405847001874,-0.1175070734934738,-0.10703073889066009,-0.09950279261108476,-0.09490601016906498,-0.09263367237201288,-0.09124379391870552,-0.0889877108577435,-0.08495425600841888,-0.07943270266144527,-0.07312919060056731,-0.06674774229339867,-0.06131118404279834,-0.057701562194666246,-0.05581284590359982,-0.05490993488442695,-0.05446983077122146,-0.05424714663345147,-0.0538758873754505,-0.05289861023739819,-0.05130024921859172,-0.04967155403089624,-0.04883783373889481,-0.04941230976462499,-0.051418108103606135,-0.05439860945901331,-0.05783011744048551,-0.06107342222405719,-0.0632628682647696,-0.06379597490476387,-0.0627349523724351,-0.06060219962263033,-0.05817814391735808,-0.05612343668858469,-0.05452882381255009,-0.05329853855817013,-0.052198429395950124,-0.05010264989695509,-0.04568908503536384,-0.03907479130930472,-0.031569756326410944,-0.024091915720828003,-0.016385777379377423,-0.007366848420046857,0.003952095957403314,0.017797928368180865,0.03393904276291649,0.05226728910778508,0.07238726286557912,0.09291223961323533,0.11198796552953645,0.12822852653958433,0.14104169253415566,0.15078449141653844,0.15855355322097622,0.16525921942021715,0.17075813128851194,0.17406376091876505,0.1741167791944574,0.1698213814221846,0.1600617933930245,0.14449598332716446,0.12401885747424676,0.10041103069854271,0.0756063853772927,0.050986172582587405,0.027333758638696,0.005218183895541628,-0.014946752942219727,-0.03266722774074397,-0.04692184567810734,-0.05689039313813424,-0.06323073510973176,-0.06778549792024738,-0.07202448072033937,-0.07605883606186506,-0.0789985148790471,-0.08010169181855042,-0.07939166505451928,-0.07729947355109248,-0.07427359815608425,-0.0706416598262878,-0.06668472243642397,-0.06284075886673482,-0.059361909110535016,-0.056149788384759584,-0.05307995791543589,-0.04959632985235278,-0.04479818331534862,-0.03888270214246542,-0.03322520672743896,-0.028682731490369304,-0.024872902163197024,-0.02085418553727743,-0.016038249260411346,-0.010843505554569588,-0.006297289300084577,-0.0028562738906673067,-0.00013997560765316268,0.0023736616837676736,1
-0.0008054645137534202,-0.0011096138077732773,-0.0030268220530255425,-0.007495557608153945,-0.014452775001702002,-0.022640954115148784,-0.030462412621531345,-0.03695074028170181,-0.041850148678140055,-0.045308580474256156,-0.0474487548397315,-0.04753772832068273,-0.044022293959337475,-0.03611319789518645,-0.02512856371577723,-0.01382829512721498,-0.004352251711212572,0.002861758390253776,0.008441654283523014,0.013199966306587558,0.017475415511664413,0.020595677048066675,0.021027769740267765,0.017152327615448763,0.008305124003432694,-0.004428112429434506,-0.01847109057712787,-0.031030869018199604,-0.04062393414034126,-0.04764596473145764,-0.053214920544402744,-0.05795501567429265,-0.062267563902972896,-0.06667618593662347,-0.07112583564998506,-0.07415657719842679,-0.07348233276749772,-0.06870568967025971,-0.06426817395132128,-0.0698381079981216,-0.09681289624334115,-0.1509181528391299,-0.22400123464468966,-0.2903660603115678,-0.31056171302689833,-0.24287208311090963,-0.06169964632238795,0.22252851054600584,0.5535205964207025,0.8400621383096293,0.989472918718475,0.9503120689067193,0.7387522084873701,0.430632488667584,0.12427482586687136,-0.10365957042741976,-0.22487121910773,-0.25669751985409284,-0.2378825435593938,-0.20305339853463883,-0.17090638133324199,-0.1460867731250553,-0.12631133554843382,-0.10856715570141492,-0.09226468399370699,-0.07887902500746038,-0.06962735244700083,-0.0640747811673461,-0.060869969678376705,-0.05902460823897279,-0.05802838955877074,-0.05736923685105903,-0.0564157790333765,-0.05467641798782101,-0.05220940871253056,-0.04954149664094383,-0.047121518841161225,-0.045112061432135954,-0.043541013842056615,-0.042381971032125154,-0.04144024232338968,-0.04023551989065252,-0.038358625947913026,-0.03619351536320607,-0.03482984791778299,-0.03513428816281616,-0.03727651798901646,-0.04081663315474241,-0.04495214700711627,-0.04885009865114316,-0.051984099750134176,-0.05443777747648998,-0.056650545830541035,-0.05872552761898382,-0.060356536546775,-0.06124529541379898,-0.060968153557351745,-0.058911174386506046,-0.055024524330870045,-0.049964262465334024,-0.0444954295577694,-0.03924160817039171,-0.03424173726428028,-0.028755614859043703,-0.021944775199922915,-0.013290159360836532,-0.0025983559638257207,0.01009765118347268,0.024865380371665878,0.041629991573650306,0.059567933618020354,0.0775196769055368,0.09481566964964953,0.11095961725795696,0.12517449220428623,0.13719550909562825,0.14764796222687984,0.15699158509257632,0.164750805241341,0.16965956520507552,0.1703187430822349,0.16619060368945862,0.15755102414550506,0.14431929342103184,0.1261958521714115,0.10407287148229483,0.08002413452581865,0.05591391019062509,0.032849775560299686,0.01152488184039194,-0.0078089496291017,-0.025349667584235253,-0.04114201119093512,-0.05477493268373957,-0.06568978867585759,-0.07344355167675753,-0.07809620664681868,-0.08055427019040215,-0.08190131638124357,-0.08255760954571631,-0.08252689164053363,-0.08178054705391705,-0.08037547507842563,-0.07878095597165262,-0.077462114711607,-0.07596168023646935,-0.07334289153050866,-0.06924954360573096,-0.06389785157709688,-0.0576373394056898,-0.05076124237777961,-0.04372845108639376,-0.03757435747137241,-0.033266194456255005,-0.030554414769037353,-0.02808620157817769,-0.024555249722596005,-0.019775743394213126,-0.014574615869672129,-0.009416519015700021,-0.00401543983213379,0.0013793500414008512,1
0.0017417254484049123,0.002336443909164923,0.002587584259882434,0.0013007249806502256,-0.0025679713090437416,-0.009452624258196492,-0.018348328881092238,-0.027384646118826104,-0.03527915656955132,-0.04152167941983657,-0.045683876901013776,-0.046987860932174226,-0.044311429332074846,-0.036898234235485404,-0.025295118121534267,-0.011677402012745287,0.0007035009218373071,0.00940597864672198,0.014680247831717529,0.01863858744825002,0.022762761827909008,0.026675605588148757,0.028639214826940745,0.026809918787141007,0.020163799707788796,0.00909155316947533,-0.004305781835347606,-0.01720284734733387,-0.027605110884439767,-0.03477305616553142,-0.03878768115578788,-0.0404674796460827,-0.04156562409078815,-0.04411823920852636,-0.048767287062506846,-0.05362686067633122,-0.055444305757254814,-0.052811015842620705,-0.04904660149611828,-0.05272996282682617,-0.0747552013764481,-0.12156840110158657,-0.18730407647944175,-0.2490931006885969,-0.2689011111029907,-0.20481864296891694,-0.03092424304018636,0.24204939549839677,0.5571468331142386,0.8231099961864892,0.9489921172824596,0.88693655823525,0.6576317950043534,0.3406256646319151,0.0346416292759027,-0.1869998405734742,-0.300074619246029,-0.3243180975230268,-0.29948388891327665,-0.25997093662005083,-0.2227023441816998,-0.19055206242335138,-0.16150599595409487,-0.13441548713146112,-0.11032128480208273,-0.09146590494938331,-0.07905549579331081,-0.07177504503249159,-0.06689146468325732,-0.06237884137508096,-0.05763546651760356,-0.05285472179369029,-0.048316957756795766,-0.044121052355803526,-0.04021076731639024,-0.0365128157508638,-0.03313349937712634,-0.030517807451964526,-0.029209242610393475,-0.029250460583841627,-0.030028049137448345,-0.03065998135610483,-0.03046922056239674,-0.02944013079020663,-0.028223525402570414,-0.027690267501834738,-0.028458976006939415,-0.03047720193586631,-0.033098980769947314,-0.035626274517621216,-0.03771221579523841,-0.03926971123748353,-0.04002192638386664,-0.03983946878602974,-0.0393806454245062,-0.03942939998521668,-0.04008719065049533,-0.040929073451989886,-0.04120022785271837,-0.0399743333447273,-0.036798244263783704,-0.03203732264739317,-0.026197243590568915,-0.019368218460026374,-0.011558248888913802,-0.002803393620720941,0.007138731023070197,0.01874968321097347,0.03256391860440046,0.04879459417303113,0.06685370012429845,0.08551130082581931,0.10349757854670377,0.11988568285952932,0.13391002904992882,0.14497871044969746,0.15365335357159848,0.16139403434414623,0.16840878838878295,0.17324268104120968,0.174736567842405,0.17291125653995437,0.16762700712757855,0.15755049819902295,0.1413572476186014,0.11942215337267614,0.09367038401337546,0.06613709079511748,0.038241228804673955,0.011245900920444845,-0.013507353182680138,-0.034960217560625555,-0.05259293728739566,-0.06655492914573957,-0.07740634804425942,-0.08556311940700739,-0.09122572754666472,-0.09474179651036685,-0.09669972475381736,-0.09763200042664939,-0.09776849843106178,-0.09679758164804457,-0.09409562376662951,-0.08974100639376101,-0.0846909779248065,-0.07982930131903078,-0.075478312708091,-0.07151444657029359,-0.06743887547057985,-0.06255975415360224,-0.056428005832581014,-0.04918017316653385,-0.041651812895093836,-0.03491132659098983,-0.02938238802130863,-0.02483789350268261,-0.02107451587856256,-0.017834761931824247,-0.014408861569995947,-0.010327260685737222,-0.00598244555267414,-0.0016911716631263646,1
0.006217164669138324,0.006850725959863449,0.0047158472684475485,-0.0006467730134414235,-0.008587924892609438,-0.017440268928216224,-0.025324353481043078,-0.031490545935427376,-0.036716394209321164,-0.042007908591307645,-0.04681667084074404,-0.048677083554060724,-0.04509036783279022,-0.03602633414613571,-0.024239474396442577,-0.013087585666095079,-0.004375092587592934,0.0017900659459093105,0.005943183951664297,0.008928694536141401,0.011758392798836639,0.014390531468481649,0.015202419272998154,0.01236385378689481,0.0051764433519251385,-0.005640956384006419,-0.018362035877784788,-0.03103990883648408,-0.04206714759894278,-0.05053876802455322,-0.05661547685719266,-0.06140794371805432,-0.06620230938546422,-0.07155186849466358,-0.07661654779276023,-0.0790523772701864,-0.07644534795554489,-0.06949198272328659,-0.06470072602809707,-0.07379756409537112,-0.10872562696148604,-0.17305001297937103,-0.25382900321349167,-0.3197554564693539,-0.3272552910188591,-0.23386758418945608,-0.018775359222927123,0.29660490674841045,0.6427441345084434,0.9205594082005933,1.0405945019663072,0.9648699295151838,0.7260073432617355,0.4098546095134958,0.11303367573168578,-0.0981530933138387,-0.20628569698582697,-0.23426613281713773,-0.22036546262525686,-0.1947126149044359,-0.17071552347870259,-0.15063726771433708,-0.1338071938909033,-0.11994222178705737,-0.10916441004292166,-0.10139420918872419,-0.09574666289585079,-0.09088055281268703,-0.085944480970519,-0.08079811123031598,-0.07573983361731951,-0.07136438459448813,-0.06827011485375588,-0.0665175605826351,-0.06553463080637507,-0.06451630167811333,-0.0628251106017433,-0.060287794069318605,-0.057114428033148076,-0.05384773704560929,-0.051577941292938315,-0.05126298255597576,-0.05265151941817166,-0.05450463197400717,-0.0557636134232688,-0.05633131936800528,-0.05678986255997168,-0.057527957706817096,-0.058314494511861645,-0.05864398735611826,-0.0582973176490569,-0.05725635369326446,-0.055407618061420624,-0.052888848319244716,-0.05030945187358823,-0.048310728719454146,-0.046929901982116926,-0.045402495690428014,-0.04303381252081233,-0.03981633103607544,-0.035643818241409664,-0.030022680497771296,-0.022734936706668957,-0.013906969988522309,-0.003714832635724214,0.007686389346883062,0.02028163891631938,0.03454075654196975,0.05114433495158148,0.06965357963958832,0.08810351403416274,0.10425158233893912,0.11677248800692559,0.12573855391708572,0.13254730499761722,0.1392767406235969,0.14741254889629665,0.15649609171274576,0.1643343138440795,0.16878799714400353,0.1686365127966883,0.16302824031599478,0.15169350184530617,0.13554770758131243,0.11587150052750807,0.09352071522695028,0.06948345860866102,0.045188359309516424,0.022067412320538524,0.001027540518102544,-0.01793617637463495,-0.035029577932821715,-0.04969684383538999,-0.061244283182070765,-0.06975625690587879,-0.07590866509719826,-0.08031905135378345,-0.08312620210005091,-0.08432664149961705,-0.08429493115024844,-0.08342471784950511,-0.08175846226432151,-0.07945227337681224,-0.07699260351778378,-0.07469093526005004,-0.07229148828056031,-0.0691708941699231,-0.06484531654942115,-0.059246479206487616,-0.05277405731980803,-0.04620062904059504,-0.04039671862088948,-0.03593369953304685,-0.0325942693597153,-0.029431925988914483,-0.02568360948918623,-0.02153049130233794,-0.017563334039208595,-0.013777896332532805,-0.009809640134859394,-0.005616030302317759,-0.001388311886702442,1
0.005957902138975384,0.0034391314465105627,-7.035665350475299e-05,-0.00450320680616499,-0.00933793770159303,-0.014324365734100414,-0.019854585220715662,-0.026451990949548667,-0.033817099183276994,-0.04067599705822612,-0.04558771625685215,-0.04733638677984307,-0.04481852866917885,-0.03757801181827024,-0.02668468914678922,-0.014676993123444353,-0.004377385674004744,0.0027219825183425594,0.007270734114408664,0.011063127404787494,0.015315651241928149,0.019756902602137354,0.02255519976813573,0.021114220684961486,0.01386036361381356,0.0017447217649587355,-0.012181401495265903,-0.0246610697904992,-0.03388804232599768,-0.039838824897955705,-0.04333798445721956,-0.04546496760682617,-0.04759358303009109,-0.050671820914628164,-0.05428610558653862,-0.056509506754826494,-0.054864069116570026,-0.04896875736046926,-0.0433869918907544,-0.04797913516253317,-0.07428359456508118,-0.12773755733719744,-0.19905067654989925,-0.2605570584724869,-0.270840971984327,-0.18821714702583803,0.00874756547565885,0.30101517895924096,0.6219270875286729,0.8744337724679012,0.9707479058184099,0.874558716135968,0.6202863742805462,0.29626576482539685,0.0011495424530211123,-0.19929490365624242,-0.2906808336459031,-0.29993276171633687,-0.26918191059714214,-0.23116949864782754,-0.19955682948375553,-0.17438336276023675,-0.15191191810428792,-0.13011868230718493,-0.1094481042395693,-0.09154127035070289,-0.07782251019430528,-0.06897856024262489,-0.06464445593567256,-0.06309007082404249,-0.06195475467570683,-0.05957740472734268,-0.0558027257508493,-0.05159196726225797,-0.047662294534328346,-0.04419536663446461,-0.041789609664408645,-0.04122090249631245,-0.04231882166194637,-0.044021516736240315,-0.045316473313286365,-0.04570156164785287,-0.04478785392284262,-0.042345938832154026,-0.039388166240176804,-0.03784994310241754,-0.038537542378101586,-0.04055889036416621,-0.04253906458343609,-0.04362381179259813,-0.0438546525792857,-0.043858346923623406,-0.04410031303634779,-0.04449679562526773,-0.04451802753710585,-0.043757506008745256,-0.04263882434602037,-0.0420418819832095,-0.04202573899984459,-0.04165012445671706,-0.03994256366783205,-0.036352324819263704,-0.030717798279857635,-0.023140316567369784,-0.013606201980951341,-0.002082639578590669,0.011056467282365872,0.02528333555998453,0.04020184757882461,0.05543929745979821,0.07098307464904387,0.08720440082152546,0.10407589371498661,0.12092210963066133,0.13654132200494074,0.14968328696484065,0.16034300051842393,0.1693884195708989,0.17644346395313584,0.1801110765979528,0.17987020952240163,0.17566054195912884,0.16650582281080947,0.15141251336624842,0.1310691263011613,0.107454293266958,0.08217662764834721,0.05624056617899435,0.03083357322629296,0.007015500464692983,-0.014776656498572016,-0.03406859220505007,-0.05007140542851765,-0.06243232746855029,-0.07145177961218584,-0.0776433021021395,-0.08172495506110818,-0.0847535957869138,-0.08760219483981478,-0.09020375679654624,-0.09156770669496057,-0.09071882912842132,-0.08765053004782894,-0.0833388082759781,-0.0788593202346185,-0.07457288090002376,-0.07009299048788978,-0.06501628577333043,-0.059740915808915294,-0.05510208170680114,-0.05111474932748491,-0.04695691133026157,-0.04220409402867748,-0.03721946584176906,-0.032459112640297494,-0.02792399335016932,-0.02314128633296069,-0.017696327596016744,-0.011982263924402778,-0.006963328016468968,-0.003072508109786362,4.879536546006924e-05,1
0.0020094415958416614,0.0004664876996166509,-0.002404918011710308,-0.007367756384874861,-0.01397485254387558,-0.021161490124322647,-0.028032456395175466,-0.03418373998704308,-0.03966678486936183,-0.04428182299549026,-0.04692705402144541,-0.04609301190824745,-0.04072485996281222,-0.03094445187672953,-0.018554976190726588,-0.006544918733841077,0.002293373893533803,0.006945741005668153,0.008708925526536196,0.009696152128534231,0.010913049021395197,0.01165372870296651,0.010248686264965225,0.005466929841803925,-0.0027972301402617184,-0.013796212686100838,-0.026125054670786643,-0.03782084001927411,-0.04705157342407972,-0.05330490398254968,-0.05766491961544738,-0.061653497379160496,-0.06617471971917704,-0.07123707945492769,-0.07571983389625875,-0.07740069086382943,-0.07455781023694812,-0.06894770946731017,-0.06751027683901972,-0.08089219483636792,-0.11900214729107016,-0.1840392197183993,-0.26299679697251027,-0.32443918193070326,-0.32396896530316865,-0.21970228322974217,0.005991227257764681,0.32794455527087635,0.6744212523268047,0.9460559898524946,1.0549171150128567,0.9658359144174972,0.7147000246223194,0.39028329711949017,0.09056856007736563,-0.1188729457399192,-0.2223727416637835,-0.24448607597774202,-0.2247885765291102,-0.19454478287659305,-0.1678794151735597,-0.14660105737485893,-0.128897281825372,-0.11407823830122385,-0.10266097949843292,-0.09509279556292477,-0.090886871738612,-0.08852960124954715,-0.08615867203927222,-0.08229405352844112,-0.07642482320573624,-0.0692829121948311,-0.06238202723133768,-0.05720861764066434,-0.054558647130439106,-0.054385260368053676,-0.056059601961242024,-0.05833781593253676,-0.05964954618153528,-0.058952398928817734,-0.05573596820311364,-0.04991855679375985,-0.0426354295786401,-0.03611788234478728,-0.03243920880258113,-0.03294405592511364,-0.03809358215829798,-0.04665255007967521,-0.05540067836230955,-0.06074392657764987,-0.061136155062663594,-0.05839400816536813,-0.05689910586338886,-0.06056284512229644,-0.06929147556719506,-0.07858155570921727,-0.08334323150300672,-0.08185780492069665,-0.07609471665625815,-0.06932586851329024,-0.06350852788876707,-0.05800081413456814,-0.050825177860088354,-0.041527197484479264,-0.03198500352939951,-0.023903640979653903,-0.016273892299415105,-0.005891511458691042,0.009569599869546752,0.029295582679105526,0.050239469883191404,0.06950748836396572,0.08601691682540538,0.10083390699333245,0.11560487546195172,0.13067950205597634,0.14544571450191474,0.15940203898364066,0.1717113415309769,0.18062103611776925,0.18433676085363762,0.1822105298589144,0.17480783102290864,0.16336074032615136,0.14931879761755854,0.13346310317647547,0.1152220117450842,0.09372732187430044,0.06931836045667382,0.043665607967146296,0.019342197589857113,-0.000916156360836605,-0.01568083840020759,-0.02584730111472241,-0.03388329454002462,-0.04173082750780664,-0.0497906248958435,-0.05750547388383341,-0.06371643442626093,-0.06737615354130518,-0.06877537079489596,-0.06909905012233211,-0.06890164086075751,-0.06789787220712654,-0.06593677318247274,-0.06352421236684506,-0.06158870741995009,-0.06098025202215522,-0.06177937974642087,-0.06284249067398465,-0.062001935378773784,-0.05710158193235302,-0.04778064341361615,-0.0365119364626528,-0.02728811301335967,-0.022926879934071796,-0.023574696366118843,-0.02699877217109732,-0.02956961968369557,-0.027999117386768614,-0.021318914020375036,-0.011205859287015316,1
0.004491099558345644,0.004270429219628825,0.003377285996631619,0.0020960433427888387,0.00012615132103507018,-0.0037499059986883694,-0.010471410027885559,-0.01936556714350893,-0.028693329790073538,-0.03702019778799968,-0.04313612381452969,-0.045485976833177705,-0.04277775363000018,-0.03510425327356513,-0.024393994550140064,-0.013510891974468522,-0.004367128508199269,0.0029545327527701025,0.00918009645077986,0.014758341012435217,0.019764070992372644,0.023616527600224896,0.02480990383961983,0.021956232405380083,0.014903557626906826,0.004410147284223069,-0.00845392594582681,-0.02219375117937409,-0.03494853308738476,-0.04508763399681554,-0.05166873758787848,-0.05488817228607738,-0.05653056844499013,-0.059011122262761534,-0.06313015667823292,-0.06715521453078056,-0.0684576690255101,-0.06612315411836395,-0.06334460859580915,-0.06884867891866016,-0.09436368523247463,-0.14704264249566318,-0.22114160804328936,-0.2935683753777181,-0.32562653418419263,-0.27329242953529737,-0.10637042167472416,0.16997925457277296,0.5037489673663661,0.8055771846252356,0.9805440193840459,0.969842016873088,0.7801683263719219,0.48146432680236395,0.17200641182528256,-0.06729754839608149,-0.2021003941208336,-0.24498116871417946,-0.23329888372205543,-0.202629171683971,-0.172778550412994,-0.14932956179201368,-0.13127823812921502,-0.11640386530030311,-0.10362722883066436,-0.09354066566705803,-0.08690464142321148,-0.08299819678674385,-0.08009688297117101,-0.07675998232028983,-0.07232737023659673,-0.06700693523691904,-0.06159357458677718,-0.056844045290848154,-0.05296534190261437,-0.04960283276451155,-0.04654560547707508,-0.043929328500449935,-0.04156926377493865,-0.0390263919832638,-0.036145017337673405,-0.03316340056394918,-0.030546094572814646,-0.02833768440703114,-0.0260421060436503,-0.023614619097603942,-0.02170603588528243,-0.020951243982713683,-0.02209035441562441,-0.02621309141305419,-0.03357188800287286,-0.04254251605867268,-0.05052018514843972,-0.05584916089101161,-0.05879184603131102,-0.060597098004913315,-0.06229942589680109,-0.06455188320457522,-0.0674042618723663,-0.07016542809566365,-0.07189485988398724,-0.0715217596018505,-0.06796155753497006,-0.06082279619776201,-0.05059987734708575,-0.03822202781929716,-0.024627609461185855,-0.01026756765274498,0.004970808607145787,0.021104075214610073,0.0377896338499774,0.05477499362689402,0.07211957402799042,0.08987506307166246,0.1075231689241603,0.12376024567268878,0.13726183800547845,0.14769909610383258,0.15550053000011846,0.16068651060259015,0.16244516027323977,0.15991323012042338,0.15308533464533902,0.14271211283789298,0.12931731082319234,0.1127556243027335,0.09297272001411783,0.07081595808848277,0.04804844087820126,0.026664586659450693,0.007894041874333457,-0.008236091886591867,-0.022300211382237263,-0.03459407588443736,-0.04507896318752744,-0.053739277623586504,-0.060517511093412954,-0.0654810374982063,-0.06916149254982051,-0.07207814332471824,-0.07416933585035422,-0.07498340632763797,-0.07403094996852123,-0.07117445179624204,-0.06695076430737479,-0.06220065433054263,-0.057590544328915236,-0.053736067433989655,-0.05119549502976551,-0.049834347847903346,-0.04840333924934548,-0.04506085217265194,-0.038811324673202856,-0.030735766264048746,-0.023211178381473515,-0.017747137854943532,-0.01405997103328739,-0.010968332432728146,-0.007516039272107398,-0.003468694515628791,0.0008093842874742204,0.005081983591836599,1
0.004424850843506115,0.0032116581588591156,0.0014332223058069516,-0.0018430792624914481,-0.0069627055663942,-0.013013930700223768,-0.018805551282628296,-0.024353819822699897,-0.030585197673927467,-0.03756865850673565,-0.04382164526514305,-0.04737103755146923,-0.04674134105121915,-0.040962221128435006,-0.03005631163197644,-0.01605789332174078,-0.0023157472821815637,0.008443554128687848,0.015017406942564517,0.017536159845531148,0.016876387325884718,0.014129892734279094,0.010289999387501414,0.005705346120118799,-0.00018772117422895859,-0.008084421061735934,-0.017947510342774194,-0.028894356196270378,-0.03948450463577701,-0.048507299694907566,-0.05569783384573092,-0.061500507936593375,-0.06656899930891329,-0.07130952848923153,-0.07536768928560995,-0.07744424784267649,-0.07569938202505352,-0.06992677512744967,-0.06502359119225845,-0.0715154609921005,-0.10088209645887779,-0.15816568983099774,-0.2348074022080006,-0.3044156212337563,-0.32572136979717836,-0.2551125053530124,-0.06670592152865246,0.22674141919915058,0.5648649444769164,0.853731882948074,1.0012014495418815,0.9585961848202642,0.7454552802467427,0.4396711019822895,0.13822238468209114,-0.0861469782749653,-0.2081302620840097,-0.24510049234929634,-0.23373425144987447,-0.206139980989719,-0.17897730025398134,-0.15615107016428736,-0.13654732059939992,-0.1191123124768414,-0.10401542600476744,-0.09203510345179888,-0.083757681488271,-0.07934411383102835,-0.0782345311810796,-0.07842274084650429,-0.07716163551100524,-0.0731560351242345,-0.06723358134418521,-0.06088652057163511,-0.05508218941634996,-0.050295839687497464,-0.04663510401848055,-0.04365126969591402,-0.04093404847251848,-0.039062965863740834,-0.03896763999691724,-0.04049882208607771,-0.04236399021249578,-0.043235335442742884,-0.04286105146218484,-0.04206335134133188,-0.04152194129517684,-0.04141415664174544,-0.04219199629146397,-0.04423506227719696,-0.047024887356803005,-0.0496785440822965,-0.051515266276585606,-0.05190703288790427,-0.050702914092973145,-0.0487232507271842,-0.04692647577858658,-0.04533058800695849,-0.04333795896923203,-0.04048927085844543,-0.036700340392891266,-0.03243498843184035,-0.02818439221353543,-0.023532032111528246,-0.01755307862932523,-0.009700182181163114,0.0004084540007867482,0.013175804878251329,0.028371686936770342,0.04479334314215698,0.0610659877520714,0.07666014949503457,0.09172026976875247,0.10631010278518369,0.12024412008364692,0.13309076982069717,0.14415322474592948,0.1526731781509457,0.158172922657312,0.16079088982324266,0.1609930165579963,0.15875263897918138,0.15338498808863643,0.14426063230803735,0.13116380798324134,0.11389642426223395,0.09245495559192614,0.06789487888180733,0.042351495265373795,0.017938550691182883,-0.004214308697575803,-0.023650799685970003,-0.039751418913480815,-0.05214400232235185,-0.061416127382288355,-0.06841967776491667,-0.0735750371856675,-0.0771381449447601,-0.07945790162544873,-0.08106113919159383,-0.08244427108372311,-0.08348727953850502,-0.08341123122506827,-0.08157798929038117,-0.0780157462756419,-0.07314837304010809,-0.06755023885267264,-0.061843969706137016,-0.05643440830311423,-0.05139518869886811,-0.046495803709626055,-0.04123503443493114,-0.0352523539338762,-0.0289887132822394,-0.023418521672293045,-0.018942233716095352,-0.015148207802221786,-0.011561857680123215,-0.00817703308779413,-0.005439514904999408,-0.0037080120341720438,-0.002572389740711724,1
0.005151179522658983,0.006087629809399039,0.0060633391065171615,0.0035742666171993155,-0.0019484997736454448,-0.009917786040408319,-0.01889996696029472,-0.027576522196400142,-0.03560199896880613,-0.04300603155068336,-0.048893658960814164,-0.0514109779382083,-0.04897476553517273,-0.041376158541170154,-0.03009572826227065,-0.017825219608190324,-0.007318714385932349,2.6117626421277677e-05,0.0047296750929039085,0.008053929081720748,0.010594966224787386,0.012200261398534916,0.012292489652295452,0.009968016272287356,0.004226026656891557,-0.005425924350291631,-0.018010351374381846,-0.031053563422268858,-0.04212000320218114,-0.05015065561093332,-0.05552705239687891,-0.059512161818857295,-0.06354945639296748,-0.06860458242678025,-0.07437727487055863,-0.07865422880517482,-0.07854110640161795,-0.07378925017766653,-0.06960191926670023,-0.07655219848175736,-0.1065733339146899,-0.1650920317886208,-0.24254387278657064,-0.3109222587336929,-0.3283433329583993,-0.25178481585102874,-0.05676651308070291,0.2427515602320083,0.5861640635338364,0.8793311624240142,1.0293136549779387,0.986790281061471,0.7713385622757023,0.4613204607829349,0.15432819605525025,-0.0758884330339351,-0.2026499461149351,-0.2425290063315462,-0.23247584317866615,-0.20523249431480342,-0.1779233146655319,-0.15498255477663653,-0.13583149077375475,-0.11981851959174966,-0.10745833429564461,-0.09934426373181099,-0.09480992415202447,-0.09203749722432218,-0.08916463960050476,-0.08517131558919036,-0.08016573530359176,-0.07498215189357747,-0.07043209449623059,-0.06674946305562458,-0.06357808577409471,-0.060678513441722454,-0.058138856919497675,-0.05576426579739628,-0.05326509536623143,-0.050858397122094716,-0.04905582645556965,-0.04804400550594052,-0.04754943588979947,-0.04754705987372088,-0.04841516499770766,-0.049873139291266126,-0.050833540617711295,-0.050799804365116774,-0.05042369056650087,-0.05035865216425588,-0.0506771744945434,-0.051423297729399096,-0.05246545464103258,-0.05322566010718533,-0.05329937381335427,-0.052629544565112166,-0.051154119016327555,-0.048900641489473734,-0.04595313594237354,-0.04222883221726097,-0.037643754111217995,-0.032041268035586684,-0.025052315951796675,-0.016776584138289728,-0.008028020223952246,0.0008839837085311657,0.010789103422387486,0.02251305047574332,0.03599751244224455,0.05090374701674816,0.06710588279422652,0.08407931119128328,0.10065881038049038,0.11584752061827398,0.12914904561886942,0.14019368303795737,0.148948658603064,0.15586922616738982,0.1613577564650727,0.16542179196194287,0.16724051674323764,0.1651217500730035,0.15776375664468512,0.1451093722110917,0.12792454297731065,0.10718970133187719,0.08373037468327664,0.058390675452015095,0.03268718202733383,0.008773114494636112,-0.011765277009333566,-0.028933961168070132,-0.04359869633001037,-0.055864742487015714,-0.06508658218791222,-0.07135924829036995,-0.07583138327972884,-0.0793652479341943,-0.0817898517081597,-0.08275621653389104,-0.08250913402103736,-0.08128794919432372,-0.07872182590261112,-0.07459853391642245,-0.0697537386287794,-0.06541575656571677,-0.06194015121335705,-0.058941891711205535,-0.056098942874862195,-0.05282158078530223,-0.04825909330041384,-0.04265683551028331,-0.037359249957685706,-0.03305114037766959,-0.0291126385987326,-0.024716794630999763,-0.019899949277432553,-0.015216127906518613,-0.010833532987188938,-0.006733302563667524,-0.002973111058112878,0.000780522371208639,1
0.001345259801835179,0.0022448245927857227,0.0016137061039436951,-0.0024655871763187673,-0.010160602125530561,-0.01978104377607937,-0.02905083055089074,-0.036560849654275494,-0.04246680468961921,-0.047415351950224546,-0.050668893566755226,-0.05005057093108179,-0.04398289243977962,-0.033322698466678916,-0.020954284211021083,-0.009717780186776461,-0.0008494277572498174,0.00592489900896558,0.011285935146165042,0.015530768614978596,0.018368603630618013,0.01903284341046113,0.01655805233775084,0.010174452909267759,-2.031067795054721e-05,-0.01260041879932026,-0.025236922507344377,-0.03583420889724996,-0.043354295785285664,-0.04778771327872229,-0.049995858010799775,-0.05158904828716829,-0.05400318490144321,-0.057150764053116206,-0.05933037523841355,-0.05861547915159556,-0.05437728165173517,-0.048858200849300315,-0.04903549976652496,-0.06586286617978072,-0.10813927347428648,-0.17392363817581916,-0.2447465312124555,-0.28574995251801577,-0.25380953641113474,-0.11462634200249155,0.13530862449401218,0.45354220470673606,0.7562300614025291,0.9467389215558759,0.9579662066275694,0.7857853850541601,0.49221657216909664,0.17436389162731486,-0.08145149056832861,-0.2324425998729124,-0.2844910899677671,-0.27337723305817674,-0.23780264187644157,-0.20175891301435517,-0.17276915678043153,-0.14950169798128318,-0.1292012822086342,-0.11080972185157274,-0.09498922303765055,-0.08295558308931329,-0.07498572948883582,-0.06992010264201598,-0.0663693107016973,-0.06367510260616316,-0.06133942417827374,-0.05875123553752158,-0.05589672255613942,-0.05322846208662347,-0.05089741804696929,-0.049048197885176704,-0.04807971924195732,-0.047819874488161336,-0.04745882312985185,-0.046616722815209836,-0.045612189979010835,-0.04474520207782077,-0.04391614632201196,-0.043022996410436734,-0.04231510969427758,-0.04193354418376043,-0.04176582609310207,-0.04204058058732742,-0.04310169544943958,-0.04472468895963231,-0.04618774446858119,-0.04684189669958527,-0.046669036855971,-0.046203879778198564,-0.045895919774142965,-0.045731761796041846,-0.04526045037265102,-0.04396277482762936,-0.04172947149691425,-0.03868293605817621,-0.034677168318360874,-0.029307800700411148,-0.022092015534402522,-0.012720770938468873,-0.0013368814031523863,0.011530202402131927,0.025072272035768547,0.03865621966754552,0.05247760227624347,0.06721658443823668,0.08331679979297216,0.10063519167831211,0.11814060700764764,0.13427300969159886,0.14775718239723837,0.15799419120347463,0.16519119923503758,0.17005882079351445,0.1730698908147403,0.17395957675743565,0.1717488714632378,0.16517964635652793,0.1531462418053498,0.13518524578327223,0.11227632901032703,0.08675572588415902,0.06079559394289566,0.03537132996473147,0.010832993438349984,-0.01222363612687722,-0.03289760224806862,-0.05029014957293468,-0.0638322986206549,-0.07378251813405856,-0.08129208200202549,-0.08757229005466569,-0.09278093971299785,-0.09598958100232538,-0.09657529819879868,-0.09498262359872511,-0.09204837180718883,-0.0885252018287058,-0.08502237137281322,-0.0817198740837066,-0.07823316562500199,-0.07403794584906581,-0.06913280771327271,-0.06405616947634268,-0.059266474573383444,-0.05474820583090104,-0.05005787948952446,-0.04479676690382454,-0.03920711724208068,-0.03384783005461724,-0.028835883344833734,-0.024138844993998806,-0.019859711262289192,-0.01571542292554065,-0.011167910372081697,-0.00600912022310952,-0.0005882645777175403,0.004240971798503603,1
0.00686943536969392,0.005615482660839225,0.0028849220343740954,-0.0022944658109168474,-0.00990797077088668,-0.01872234151686009,-0.027165905230289184,-0.03431818832046326,-0.03993405402775145,-0.043994159483622584,-0.04619381661168565,-0.0454715270493626,-0.0406378443391184,-0.031623684785067864,-0.019852180278860137,-0.007946574258201989,0.0012203724619364986,0.006366996344948883,0.008602427227015621,0.009834297662037368,0.010814338598037463,0.01095621001687947,0.009381076821463743,0.005426804208496757,-0.0015016442917365393,-0.01142607516394434,-0.0232248822619785,-0.03511551815379559,-0.04543222387190721,-0.053200061756258965,-0.0585601359950245,-0.06261708103635223,-0.06660823134767002,-0.07099810868875904,-0.07496251340995319,-0.07655028247111362,-0.07417658927575767,-0.06943323618742302,-0.06956446003117611,-0.08656448646493746,-0.13088614027545747,-0.20212112740715815,-0.2820018217573618,-0.334224414908448,-0.3131448291922462,-0.18098397587605006,0.07058436449491631,0.4044715327907809,0.739757399689561,0.9767153046884722,1.038273315935938,0.9068699127032428,0.6337250522760679,0.3130909658097029,0.03699012510002601,-0.14218280330145688,-0.22217985742121127,-0.23431574523894722,-0.2158363793474996,-0.19088009871045786,-0.16803616819161904,-0.14799617304664794,-0.13038959460600494,-0.11551372801924906,-0.10388056341323161,-0.09581782429691701,-0.0908451104543106,-0.08762187695941641,-0.08492238910925057,-0.08227693012004048,-0.07961757146844911,-0.07668255422249265,-0.07304141666860357,-0.06868769667622653,-0.06425074208685226,-0.060631162199458785,-0.05848433783673141,-0.057686643681244314,-0.057350093585559966,-0.05659628182220836,-0.055158220024949564,-0.0530572921106266,-0.0501873523072317,-0.046770564792785,-0.04381541523574907,-0.042661787471460176,-0.04397182572230226,-0.04711869791841454,-0.05057335714359224,-0.05284323660094295,-0.05336784899132946,-0.05276012948608643,-0.05199111662902592,-0.0514181765978914,-0.050646298954143194,-0.04924964550665622,-0.04762184577779485,-0.04660566559130057,-0.04612824316854754,-0.045010265701758256,-0.04223568201213003,-0.0375610143010406,-0.03086761111761192,-0.021879076615878693,-0.010713614997647194,0.001993639689594347,0.015795203316600854,0.03072026946795825,0.04658342653283312,0.06262648939396802,0.07826284209487988,0.0938288177160106,0.10994246934040028,0.12618566167071016,0.14116296718338198,0.15355778854958235,0.16274979094935796,0.16896421483645357,0.17279777770988625,0.1742849558711176,0.1726032709125602,0.16669059229745856,0.15588823199117857,0.1400991859129924,0.11986361696099182,0.09641370097613422,0.07123014469783494,0.045580029497908445,0.020632845125475016,-0.002594061588065629,-0.023330545473617077,-0.04075803218788656,-0.05448485509800442,-0.06511151587405081,-0.07338106955482293,-0.07947984181899084,-0.08364128867139145,-0.08656983040861985,-0.08884964670750285,-0.09043532096929847,-0.09091105727732973,-0.0898264900465283,-0.08695486848246875,-0.08246566191701456,-0.07672062640067326,-0.070199897486071,-0.06358461187877903,-0.05763680837208049,-0.05292548512682418,-0.049484342714859124,-0.04688875417229517,-0.0446207337560153,-0.041993701229174916,-0.03809183338180289,-0.03244484550382503,-0.025656577303228775,-0.019019042137229818,-0.0135673582445293,-0.009545643289964953,-0.006693561629580749,-0.004598113814533209,-0.002615909898030889,1
0.008973147020714755,0.007455423604003519,0.0042941732462573965,-0.0013833016640214864,-0.009521836517009434,-0.018671029308829846,-0.026770363508049042,-0.032664766457206715,-0.0369790806111813,-0.041220521310112695,-0.04560076314623313,-0.048128895288435385,-0.046181840286850614,-0.03848393839941169,-0.026030512373672095,-0.012021660874894606,-0.00023983911091399798,0.007523162221743612,0.012196871783116396,0.01539324077705937,0.017445949129715112,0.017648367248157312,0.015327592155454983,0.010158344741553488,0.0019870140575067342,-0.00906225050009051,-0.022040801222537057,-0.035007267428053185,-0.045977526544741756,-0.05404574645269649,-0.05960168069579112,-0.06385810221262805,-0.0680562087154715,-0.07272846752376934,-0.07728283948245665,-0.07996620937059273,-0.07869787165594422,-0.07318953758022484,-0.06782966099114138,-0.07294389880456126,-0.10114964173178555,-0.15887598533400427,-0.23791221557359676,-0.3119308273191813,-0.33972967903733114,-0.2766143805565187,-0.09412553412793621,0.19895439316175217,0.5464699233976928,0.8554486987408325,1.0292799811362516,1.0109436769908333,0.8115680976723246,0.5049483619090522,0.19050056036503316,-0.05185040013046463,-0.18911713951340864,-0.23461426180807587,-0.22595362386950785,-0.19886421822119893,-0.17295442383044035,-0.15291867461133823,-0.13699701680706464,-0.12332818532937799,-0.11152428668099643,-0.10198736044365567,-0.0950719816658855,-0.09050000705542782,-0.08720675813848228,-0.08384145366583083,-0.07967464709742823,-0.0751516426149583,-0.0711962210492091,-0.06788905753092431,-0.06460620657196042,-0.06136303970609976,-0.05882940927322938,-0.05700465096749341,-0.055051475033729945,-0.05250476157444279,-0.04982003996841298,-0.04791013583274445,-0.04747834493489751,-0.0484110512117344,-0.049774785424299896,-0.05060813288791024,-0.05061049778764902,-0.04999276484487908,-0.04915542822265094,-0.04870581605843282,-0.04908920530703746,-0.05023803226777656,-0.051893894920216135,-0.053789143524618985,-0.05535770969122995,-0.055721032219726234,-0.05436130685930657,-0.05158888282267714,-0.0480529828808131,-0.044319095407951696,-0.04088196411522958,-0.03758233288752249,-0.03324243066328356,-0.026673198832980503,-0.017753815909374557,-0.007219656724993155,0.004447305878750639,0.017487845965278408,0.031984175021876275,0.0473256511786725,0.06306355061681178,0.07916732567979806,0.09514594802171497,0.11017224160394029,0.12388956720154512,0.13631856690040178,0.1475940656924377,0.15781344008924325,0.16643120640988546,0.17225568064302463,0.1744558347682842,0.17283519044043283,0.16690010680046424,0.15564101426114832,0.13858578908360875,0.1165310500334822,0.0913734692674409,0.06542595885578728,0.040369477498837264,0.016742503326012535,-0.005200437085156575,-0.024671833660228046,-0.0409789988574905,-0.054162215573034196,-0.06455979658852817,-0.07229474036359528,-0.07726755476673558,-0.07950447818340638,-0.07967920310913365,-0.07921329646495108,-0.07926814957985938,-0.07951055563003673,-0.07875466492712294,-0.07683307114102857,-0.07447792900653859,-0.07167680947196853,-0.0677965215093567,-0.06286959837893225,-0.057586092068387065,-0.05249213541819461,-0.04773331200376327,-0.04325359434320199,-0.038990729958158825,-0.03495194832365463,-0.0311996261924292,-0.027759353509026016,-0.0244558597903584,-0.020825627554053323,-0.01650490069481799,-0.011909740024832388,-0.007996673310420106,-0.005187356778027539,1
0.00030756267557224625,-0.002029654325453869,-0.004825997586973859,-0.009021642374246573,-0.014654224170872367,-0.020832430453971998,-0.0265747029637032,-0.031495112578989376,-0.03616505635899554,-0.04134182386686008,-0.046496232073202526,-0.04960427354287814,-0.048296321535874376,-0.04135095469959172,-0.029711058412222498,-0.015844587318171798,-0.0021482540899321525,0.009792801518298241,0.019181695617840003,0.02585806014343489,0.0299826844931373,0.03167151864785457,0.03072813011162149,0.026591245158909545,0.0189009719815632,0.008476855859585323,-0.0028316952685958153,-0.013580038779709478,-0.023269636024973613,-0.031718525346670454,-0.03880602861245703,-0.044646609940467784,-0.04964612300801891,-0.054149425519092714,-0.05788605511077372,-0.05975893312910722,-0.05813289668723493,-0.05260495694238461,-0.046914626247705815,-0.049750977066375546,-0.0718227821823007,-0.11968317450744073,-0.18762537558361225,-0.2520179593229408,-0.27333148929244006,-0.2082973301640646,-0.030777157956768053,0.2468406050443916,0.5651319003994615,0.8313969045775957,0.9548050316326652,0.8886729566008409,0.6552889615156121,0.3357618478351715,0.029935396555478777,-0.18863816016136806,-0.29671292002766875,-0.3159111642127059,-0.2875862657548477,-0.24665675520286834,-0.20989532877315936,-0.17961728329814103,-0.1529120513996587,-0.1281462226185442,-0.10629820361005843,-0.08901743862035173,-0.07671739189405286,-0.0682941351712325,-0.06218517880080781,-0.057417358392637514,-0.05355220932925134,-0.05025761703842595,-0.04726796618439089,-0.044337596230536326,-0.041199177204111904,-0.03801220484292082,-0.03573240718802986,-0.035195358822180785,-0.03591516862753038,-0.036647681599993355,-0.03685226413512971,-0.036873384849198367,-0.03702238468359282,-0.037063693567255605,-0.03667597064224981,-0.036217764389103735,-0.03639921863983002,-0.03712765718603871,-0.03770777367050814,-0.038293701874911226,-0.03998555287099201,-0.04316165342723188,-0.04666467754251634,-0.04913709192754326,-0.050285929270790106,-0.050276264768851865,-0.048922275877009765,-0.04631817006712541,-0.043403075471231296,-0.04107193625150345,-0.03928542719472846,-0.03718840625707746,-0.03358922263064188,-0.0276000082234229,-0.01910458502584656,-0.008405561789336534,0.004399702925592903,0.019121780361764755,0.03482051733187825,0.05043437480924546,0.06605083233122937,0.08259235744428607,0.10016470782230778,0.11751545882262066,0.13307231977954934,0.1459094265356108,0.15612991061334303,0.1647635356720274,0.17260604517785857,0.17914794790517344,0.18302900563313793,0.18278811658754662,0.17725816085901352,0.1660534532747185,0.14947080592368764,0.12803222639267442,0.10270903504471196,0.07517746553230309,0.04717541937641959,0.01994824819003459,-0.0054377633874592365,-0.027862779872710172,-0.04655660710588449,-0.06153320447437541,-0.0733459275065512,-0.08246942106466715,-0.08917262350583212,-0.09379742137961261,-0.09672114264443259,-0.09804375726633419,-0.09781821334519931,-0.09644613548056784,-0.09422923420818338,-0.09100590631322694,-0.08687024324854106,-0.08242580418698622,-0.07764638671458245,-0.07175359694082284,-0.06485276363982083,-0.058193693087550215,-0.0526035384379006,-0.047920138649652985,-0.04373437400664139,-0.0398346018466118,-0.03602494019685427,-0.03189421102647744,-0.0271390800441722,-0.02224622544414963,-0.01821775048027308,-0.015344062614920358,-0.012810189757914956,-0.009607156476137834,1
0.0050271766711396,0.002054989711465856,-0.0018816036707050995,-0.00612317290454683,-0.010814400573606272,-0.016312456174794755,-0.022334275683116828,-0.028260405965339793,-0.034201975599786175,-0.04056689226811557,-0.04643233804186575,-0.049464920692754946,-0.04748653489860713,-0.03968252542062841,-0.02715845269543189,-0.013068933877774074,-0.0013356324679209726,0.005760531123480998,0.008751358771830151,0.009794886789180227,0.010632950615059677,0.011503185638431314,0.01138415355923294,0.008892899233277823,0.002986183814812641,-0.006536983903823561,-0.01855758593868523,-0.030888558346197383,-0.04128002823116977,-0.04858362225336655,-0.05340137266569388,-0.05730689991070423,-0.06151803269689938,-0.06644009330767826,-0.07153821032354193,-0.0749581721139832,-0.07420321444190153,-0.0691526468578061,-0.06552510234679731,-0.07491957781283316,-0.10937421505728666,-0.1725001453316364,-0.25244198193933504,-0.3200915276796317,-0.33334816121169003,-0.24928931279284647,-0.044567966615407115,0.26368053496313515,0.6103818358810522,0.8985096316235083,1.0363372984678447,0.9793322754542689,0.7525007447245583,0.43797970122023966,0.1345384442311646,-0.08624987839912601,-0.20232972745068023,-0.2342044687707811,-0.22025574442071366,-0.19281532431043769,-0.16773043200935206,-0.14815832175060134,-0.13261676972472775,-0.1194683153237283,-0.10841762552369633,-0.100213291747827,-0.09501452592055085,-0.09171456919828684,-0.08883476577774702,-0.08532841672084454,-0.08087758374485822,-0.07614791383059613,-0.07226971936851724,-0.06958814678085903,-0.06733235049289911,-0.06456117945645624,-0.061079673308117005,-0.057338723723982334,-0.05379206874584674,-0.05074893901293561,-0.04865805616919693,-0.04798081975735474,-0.048564366970697284,-0.04949687532898647,-0.04986999893937963,-0.04955082092672111,-0.04904435883022533,-0.04881606793357618,-0.04901927934711324,-0.04964826350363905,-0.05065226327138786,-0.051857599943952365,-0.05284036352338489,-0.05315458770590722,-0.05281175585023775,-0.052132084344426656,-0.05107334736797469,-0.04925854602948677,-0.04669010073230069,-0.04387199402490662,-0.04113782127517561,-0.038086367869123394,-0.03367136412771608,-0.026944115799395693,-0.01774973764891745,-0.006566871243933488,0.006117497325805148,0.020004112782019412,0.034880931558631534,0.050379868654548146,0.06575823842732877,0.08062276576137858,0.09549832667530717,0.11072592593628776,0.12565718876126514,0.13955766441221767,0.15221495854684716,0.16324870067900724,0.171805463154747,0.17711878968941097,0.17865516294368988,0.17593171308742375,0.16859197587326694,0.15642077809815227,0.13935271158098048,0.11781454768834508,0.09310088462862881,0.06712651180118517,0.041702333404211894,0.018016078843769052,-0.0035826061794542625,-0.023209537396930043,-0.04050187189857818,-0.0545508493894174,-0.06492514145013872,-0.07211189491035618,-0.07712644332307421,-0.08100428994375297,-0.08413108578324399,-0.08603953164574552,-0.08634627090329071,-0.08555450125006533,-0.08445908483832232,-0.08307610109186181,-0.08059020920878225,-0.07639768432314992,-0.0709065863449542,-0.06519280041438966,-0.06028840003845797,-0.05668517164127224,-0.053938578270680756,-0.051054104108628956,-0.04746174002465263,-0.04307761215928774,-0.03784038016760141,-0.0319268876061871,-0.025986620927366037,-0.0208240975749509,-0.01683018601982943,-0.013489283135159602,-0.00990159396151715,-0.006065041176661663,1
0.005343323765797787,0.005819232533046035,0.004703235301484119,0.0010772916150576883,-0.004919771579745495,-0.011940102725067259,-0.01847327234774004,-0.02409476603946846,-0.029440850290673504,-0.035137375215402035,-0.04087451047482803,-0.04514887301187867,-0.04597356335403182,-0.04220818353142569,-0.034229410709012115,-0.02354792484600515,-0.012217636785909201,-0.0022378177608421423,0.005245173542328474,0.010285690151226885,0.013496542944552357,0.015061715628067638,0.014541284325687355,0.011383902567263881,0.005270373448128084,-0.003679105798082806,-0.01451390801245108,-0.02551248888223702,-0.03517394899139451,-0.04277558128500396,-0.04777562929920193,-0.04994884986273157,-0.050467578673490276,-0.051471119862417834,-0.054155266196568914,-0.057560402741917274,-0.05895563575652348,-0.05645204709109128,-0.052825477937737994,-0.056689586568943594,-0.07903334849446131,-0.12635019332611128,-0.1925150887408245,-0.2533757152660023,-0.2692004750239301,-0.19730052676912582,-0.012693923076441519,0.2705602818057838,0.5905874537580632,0.8529701360403728,0.9679651104248252,0.8923038946933568,0.6517782431401108,0.3290793430246062,0.02350693049094214,-0.19282296307272043,-0.2983712378130302,-0.3160403435372234,-0.2872436365251134,-0.2461859539812873,-0.2087024036477238,-0.17665773838408794,-0.1483007798227302,-0.12369293485320065,-0.1036024819078826,-0.08785427554114844,-0.07594465278025647,-0.06753995998113842,-0.061669963432847696,-0.05670962555398523,-0.051841443529041506,-0.047483055760639464,-0.04405681068149185,-0.041404813129517465,-0.039353581178222415,-0.0380243685198829,-0.03732003576874273,-0.03650606761068022,-0.03506100611619768,-0.033505327561109535,-0.032577696573569244,-0.03238068069163789,-0.03277978414791907,-0.03389026785884729,-0.035783539102172385,-0.0380588048993545,-0.040152824124246596,-0.04164863984854721,-0.04211851490843552,-0.04136227305520901,-0.03994190846227199,-0.03918111857366276,-0.04015863895752746,-0.04264948529316826,-0.04544143567818782,-0.047478833303100154,-0.048444808651228966,-0.04829356369550872,-0.04675950211573,-0.04395269321800097,-0.04070763444172743,-0.037517767293389466,-0.03388839668011082,-0.028997813137388247,-0.022126404068393963,-0.012656911412652044,-0.00029307134098786707,0.01479840151024724,0.032151398081550445,0.05108871823583079,0.07042623052577779,0.08880057260880223,0.1057239882045917,0.12137157345207811,0.13567570466954434,0.14853046699696976,0.15995678827729035,0.16970319294556616,0.17722792026730488,0.18198718457368218,0.18356896788640428,0.18138979503471253,0.17446956157636925,0.16199758565281147,0.14412125907124562,0.12184253327762341,0.0963883568127746,0.06913519141243298,0.041625159699108065,0.015368669183631816,-0.008389093026130584,-0.029185962759170077,-0.047099368422655614,-0.06180928944671746,-0.07300174375763428,-0.08120014008723107,-0.08709223545514574,-0.09085628371849311,-0.09271471294190134,-0.09331396899121117,-0.0931740840147117,-0.09236390473387189,-0.09099039434236153,-0.08935466060245881,-0.08746342542023505,-0.08503449385291065,-0.0820207309873498,-0.07852526546271293,-0.07431940615020921,-0.068894569030895,-0.0618839342724838,-0.05373285589164417,-0.04596460435595778,-0.03999290997506093,-0.03587470798970237,-0.0326478578883575,-0.02925146147532505,-0.02504105392884879,-0.020063118778253963,-0.014822284489443758,-0.009723485556883932,-0.005004933475718704,1
0.00933376639027002,0.006484763387974316,0.0015898329738641285,-0.0047032073245336075,-0.011531422843817874,-0.018419039298117643,-0.0252380155457404,-0.03186177162534453,-0.038128274043399406,-0.04384754411217383,-0.04807856397035628,-0.04883237925860461,-0.044623036900040075,-0.03581864367263043,-0.024162724283262806,-0.011958939171571028,-0.001506610329814727,0.00586559300862248,0.010310283095020367,0.012576721882704991,0.013006421145557888,0.01133326092315855,0.006941326418906023,-0.0002592927868468294,-0.009331652440883829,-0.01911390376712748,-0.028889316755961895,-0.038020764832430665,-0.045642886398233946,-0.051301137542897265,-0.05567863785125847,-0.06026920225746381,-0.06621629812566851,-0.07316265209438017,-0.07901756863727352,-0.08095905140830542,-0.07742591181467504,-0.07094711533660025,-0.07009268844243673,-0.08755437151630416,-0.13334446279897819,-0.20591521214130024,-0.28626772461927064,-0.33812678817242414,-0.3155110770443986,-0.17962840518307588,0.07809661131879435,0.41888891417189567,0.7587510449473021,0.9953842939065631,1.0512566119018807,0.9106515483958364,0.6277611405037588,0.29921820170964153,0.018195386869565202,-0.16221470671601967,-0.23913179267437085,-0.24441678821365542,-0.21787860296351463,-0.18690088291025536,-0.16183873459492668,-0.142864892920398,-0.1278880072479765,-0.11584549447248424,-0.10629489782466645,-0.09876048160812545,-0.09294991939982959,-0.08843207994869387,-0.08422123532108779,-0.07956416621488013,-0.07469105824388306,-0.07044782001220327,-0.06741983826546527,-0.06521286161896075,-0.06281070967575317,-0.059784070497412196,-0.05663387955399769,-0.0541090174368553,-0.05249726177033239,-0.051493443899318495,-0.05083929244399492,-0.050482332358360464,-0.049993171884794206,-0.049041193491216675,-0.048064335520283635,-0.047353848919221286,-0.046413687742008256,-0.0448635988126537,-0.04310770698195828,-0.042098703640706905,-0.042795393192291115,-0.045331195035130875,-0.04874959302929978,-0.05186572554528772,-0.05376316955874061,-0.05376036213871892,-0.05187374066211925,-0.04879139520273463,-0.04530633810493522,-0.0421978595687644,-0.03981401415881812,-0.03749487820880375,-0.03389187747985159,-0.027837374052200263,-0.018913362780490675,-0.0074288352701703045,0.006033438109243257,0.021035602116192178,0.03718647534699819,0.05391092213745964,0.07054098570783908,0.08659946533491299,0.10207659568604195,0.11718014535619452,0.13188779860597885,0.14600357876293407,0.15918436822279364,0.17072633137524607,0.1794237542574561,0.18381812614482443,0.18303242571359088,0.1770966652080837,0.16630772586468812,0.15081818418840076,0.13093034072762041,0.1074814120651038,0.08186474824275182,0.05578205339751385,0.030706318026570575,0.007363120989952076,-0.014098049331706903,-0.03366015748952826,-0.051000682983608076,-0.0651111573527422,-0.07500170773868821,-0.08087548700336425,-0.08406780140184095,-0.08604587180078097,-0.0874890998467139,-0.08815364564804574,-0.08761710744179793,-0.08599054387635113,-0.08402354084803837,-0.08234061504533544,-0.08050271328346097,-0.07751687104465098,-0.07294909703497289,-0.06699678781157531,-0.06020380271009735,-0.053358513213499305,-0.047311112837487804,-0.042639408737518376,-0.0391593266205981,-0.03591504939704751,-0.03198093613348963,-0.027218150395975096,-0.02212684448573558,-0.017199268514914122,-0.01270687533670534,-0.00884444509802056,-0.0055953379836542316,-0.002652255079099417,1
0.007809504888178771,0.007758818879304857,0.005690377598324164,0.0008464967338370996,-0.005961309098858872,-0.013444085186211449,-0.02088734763782619,-0.028053509353958558,-0.034734575514291335,-0.04034859408136732,-0.04335376691083737,-0.04162045260762225,-0.034387304699357586,-0.02352030476154392,-0.012355171438897198,-0.003411870516336092,0.002842516190717178,0.007390140143282211,0.01118348758526417,0.014385081727989767,0.016621225636142767,0.017159831281661708,0.014925116373122283,0.009064115537263162,-0.00030806598015429947,-0.012137909159047519,-0.024858990050673782,-0.03640967172872634,-0.04489795382570278,-0.050020328358942524,-0.053141658129777954,-0.055907392515647886,-0.05923769938509431,-0.0631155465880509,-0.06633696579567439,-0.06650910694061378,-0.061791996554784914,-0.05432098086641198,-0.05235389364952403,-0.0680851132234076,-0.11096692017649458,-0.17953902582226614,-0.2559421489721299,-0.30610912755873243,-0.2870973229893434,-0.1621035335802276,0.07885749211160634,0.40114335465131296,0.7248955328444718,0.9505990150094624,1.0018863617145632,0.8621182196611913,0.5829665732528752,0.25887862911366205,-0.017561040941854143,-0.19304501390934037,-0.2651371069860091,-0.26657595708500426,-0.23712466131517104,-0.20339262995132792,-0.1753203992117435,-0.1529922619965209,-0.13414592294240565,-0.11782629728718244,-0.10446198568335555,-0.0945577674439518,-0.08795071356520073,-0.08373994550263561,-0.08030110453645715,-0.07593896936488538,-0.07017325715113444,-0.06399334734254636,-0.05861549697230996,-0.05461972232492396,-0.051994053244432015,-0.05008227841602961,-0.048061599681351035,-0.046014460669113404,-0.04469267638402268,-0.044118921800099124,-0.043450487331192326,-0.04222776060633142,-0.040917074704106694,-0.040376164323640266,-0.04109828569016745,-0.04267920575644166,-0.04430777292728599,-0.04585928017672814,-0.047604387465834536,-0.049055357647262196,-0.0493517306513578,-0.04849638369618943,-0.047360723178766856,-0.04692745109256426,-0.04768220494152495,-0.049182419569952715,-0.050466991429404,-0.05101358318206188,-0.05063815660520374,-0.04876482154037595,-0.04468444327845411,-0.03838380087759827,-0.030573497672390766,-0.021845673903532647,-0.012228418665319842,-0.0016281623180677864,0.009973336186230678,0.02268926302121113,0.036568458545324055,0.051663914015385747,0.06820939176169677,0.08612902313870777,0.1046021064230685,0.12234311790372815,0.13813196265713643,0.15110498000380784,0.1609967487318466,0.16848778411356488,0.17466971086447325,0.17960655267920675,0.18187108165215032,0.17947288847340473,0.1709193232036454,0.15595075171682438,0.1355414386026181,0.1110700811983086,0.08402352819473824,0.05629316211955594,0.029734590391669893,0.005382194499908552,-0.016313502114996853,-0.03472667796612135,-0.04945025163650326,-0.06093017653578515,-0.06978339583998674,-0.07643561121770243,-0.08154010918456331,-0.08550648644108194,-0.08818831872808394,-0.08949066169769802,-0.08946237927227664,-0.08798320427458324,-0.08489764255567574,-0.08069615639681904,-0.07674777946692499,-0.07402618367758579,-0.07211315535646406,-0.07009024282382939,-0.06747110756005148,-0.06412445318716663,-0.06012410218721257,-0.05542205240359163,-0.04961204704086351,-0.04266856565351821,-0.0354665096290905,-0.029010537594130442,-0.02385863908679883,-0.020257687832385667,-0.01788366047918758,-0.015580997740113279,-0.01194527145959497,-0.006470709511048086,1
-0.0015842682887514895,-0.001683187118950953,-0.003054364218183599,-0.006738423403717434,-0.012465237892772997,-0.018848200973385246,-0.024744618390376057,-0.029964201263379883,-0.03488314429232893,-0.039725308085116366,-0.04369465265636018,-0.04509210904723321,-0.04258694846738735,-0.03593698485177542,-0.026023251413532757,-0.014569382224950892,-0.00341391692943517,0.006151393102142198,0.013734000822819106,0.01958834963895564,0.023675581338101923,0.025208492963147963,0.023276587923134008,0.01761505449653388,0.008629935637075365,-0.0028813636657966882,-0.01561876930205556,-0.027694815512115153,-0.03729479063946092,-0.04389489732834762,-0.04856160158440442,-0.052801284050261243,-0.057519170581644824,-0.06277264419756837,-0.06754881333017322,-0.06968961006576013,-0.06721607510150411,-0.06107045547645787,-0.05734306826438911,-0.06682403506677435,-0.10028079161687424,-0.16051220224287982,-0.23545896466956667,-0.2959793779007026,-0.30047321595262366,-0.20787296136421893,0.002458932898636903,0.31056343329904695,0.6479491355150633,0.9146288382398163,1.019907817585425,0.9260603439483681,0.6684624358244156,0.33837943968009065,0.03757381551809359,-0.1668336884077474,-0.2612968153491523,-0.27390038708957076,-0.24635821569852742,-0.21030587244584364,-0.17940275102868458,-0.15468931652811496,-0.1335942383969996,-0.1151943641727155,-0.1001538185767973,-0.08868356402178022,-0.07996269282352965,-0.07292796440218467,-0.0669336288999473,-0.06185081604285195,-0.05814152021424063,-0.056583229010666466,-0.05723058365326175,-0.05909541388730476,-0.06085878362552757,-0.06142341304209397,-0.060374171424148394,-0.05813995781143365,-0.05535268686484182,-0.05246658424050262,-0.05005162235993765,-0.04865559247701477,-0.048465817665120405,-0.04926744268500742,-0.05042251300177589,-0.05124809833458899,-0.051386648886197796,-0.050843012628789444,-0.05022890371494319,-0.050377761311178416,-0.05122548116641918,-0.051878619204108745,-0.051862716366297426,-0.05150699099471759,-0.05126275389982085,-0.05117582322391028,-0.05082585258350817,-0.0496714712274543,-0.047540448780625605,-0.04452114294209118,-0.040613445054733216,-0.03585046246163161,-0.030169227120766487,-0.02306134586025814,-0.013971578691290903,-0.0027481830076135395,0.010529451979026074,0.025426014437570532,0.041060277424833834,0.05694184361619702,0.07323185948526068,0.08996076397957203,0.10690678718989058,0.12373475004128813,0.13959753550408507,0.15324946776917633,0.16395503143128462,0.1721889689133573,0.17901203891070097,0.18455467070114961,0.18762940122585742,0.18668618336856913,0.18041047261781143,0.16780951856791768,0.14886080324595277,0.1250795244497964,0.09884490576741743,0.0722627393139169,0.04644856968227238,0.021573265185214404,-0.002228505275563279,-0.024458914932914466,-0.04457302261097366,-0.061972086669938156,-0.07613151746345402,-0.08674271605953132,-0.09361047841557595,-0.09700464653253099,-0.09793053799066062,-0.09760766300285291,-0.09667123920085208,-0.09508690274914733,-0.09289619035863689,-0.09052654857989456,-0.08828993085229016,-0.08601129543714858,-0.08325043188268133,-0.07967790129124916,-0.07491470144644367,-0.06861134183076054,-0.06134455835605541,-0.05435338764852425,-0.04797889287293776,-0.04163827915699076,-0.03531529770705851,-0.029764632697542998,-0.02522635583275694,-0.020934498060021775,-0.01609883689548902,-0.010963071941736156,-0.0064925455732328455,-0.0031486833802924115,1
0.00165908080412159,0.002322812881351742,0.0011195414870095485,-0.0030331746150439563,-0.009287240469921524,-0.016271032036894274,-0.023320622175958237,-0.030365402298244654,-0.03720852160000872,-0.04315233808340753,-0.04721347149749685,-0.048302347263425076,-0.0452702718623859,-0.03758231354968534,-0.026234666585050314,-0.013731595450064846,-0.003021768052805724,0.00398568518778573,0.007453851555430503,0.00912362331174936,0.010580097842525837,0.011920071414962416,0.011746738405918625,0.008338197009526906,0.0009439814403594511,-0.009945348125646947,-0.022891231180748386,-0.03579383020822526,-0.04669794331114168,-0.054606346150062775,-0.0595323333167753,-0.06235051462097302,-0.06455912290790788,-0.06722545779854977,-0.06982922529540123,-0.07056893403191829,-0.06810466735437937,-0.06418207817942781,-0.0658068061013477,-0.08401580899461539,-0.128020339147249,-0.1971689846668362,-0.27463140345541226,-0.32589154601354275,-0.3057979122293367,-0.1763104953797487,0.07116284223770013,0.4003094335938815,0.7311810385584272,0.9641712659318211,1.0218562154428463,0.8870182880678017,0.6115690501594312,0.28979806162074473,0.013521191064130664,-0.16454755490504025,-0.24176064912927858,-0.24960165714639695,-0.22579537858240303,-0.19515468826512775,-0.16752711778727944,-0.14474402886916124,-0.12641605034068135,-0.11214705399827901,-0.10152222995344465,-0.09373368151674953,-0.08810469428452489,-0.08430888629927166,-0.081714362147211,-0.07924445822073478,-0.07601934125226122,-0.07184725153029296,-0.06698550364481487,-0.06181860035305888,-0.05694747469167062,-0.05296831185942327,-0.05024348561374169,-0.04897930314271756,-0.048924766440870515,-0.0492227051918652,-0.04902099182988307,-0.048039950826037334,-0.046330066989817204,-0.04397205945260319,-0.04149259177895691,-0.03984828667273625,-0.03960735208695183,-0.04070956411973613,-0.04261586100687774,-0.044233873967916,-0.044593103386400844,-0.043755694455945196,-0.04244732247601259,-0.04121165752369961,-0.040351629850571225,-0.040278396847028344,-0.04130387348534793,-0.042889469091626525,-0.04367801767751134,-0.04261453809158642,-0.039513968706368495,-0.034597394261660044,-0.0283095781329408,-0.021196855820617113,-0.013175797561176324,-0.0036134494530121325,0.00778398227504439,0.020833392993252473,0.03519484559517784,0.05061324543639643,0.06689842352776552,0.08361499442488311,0.10019257075116836,0.1160542502749755,0.13056415461161278,0.14332875281832086,0.15403548062708325,0.16216899201884488,0.16746364250817897,0.16988290124222846,0.1690737274228987,0.16449703943584462,0.15563195242384434,0.14188036761650533,0.12315088736659698,0.10040816623600646,0.07517217022175321,0.048967736505811585,0.023357657654322062,-1.1942137122536445e-05,-0.020006442004629796,-0.03677478262652639,-0.05116638940977423,-0.06324891434178219,-0.0723143599183943,-0.07829499651638605,-0.08212415585233561,-0.08478903788704532,-0.08671390848131899,-0.08760154339910055,-0.08676668381193695,-0.08413056186912447,-0.08038156731629373,-0.07629616658432498,-0.07243667355578537,-0.0688161729205794,-0.06503703882408242,-0.06127052003751808,-0.05808966890296082,-0.05508166085341005,-0.050967367285091617,-0.04528761714783799,-0.03877573891802201,-0.03225541330145203,-0.026176608487978502,-0.02097008517704063,-0.017047228791614917,-0.014231492869090269,-0.01161536786157146,-0.008302727591330553,-0.004154089890744353,0.0003720145927479761,1
0.010502025924460017,0.007916629835491715,0.005418195501520755,0.0025249472167258886,-0.0013326301013264167,-0.006323306836574582,-0.012272641722086947,-0.018910939350330645,-0.025798075684127557,-0.032464268136648725,-0.03830678875963455,-0.04211508282055639,-0.042272105334877845,-0.03737557876615144,-0.027230072213358818,-0.01388894895990959,-0.0008409266552655832,0.00908203553268138,0.014860429429338077,0.017334525937011215,0.018253314767187903,0.018510678429804646,0.017231345273284012,0.0128051739684359,0.004609948569465364,-0.006418446407920858,-0.01847280095508365,-0.03003359757743599,-0.04060711184703533,-0.05014565742713439,-0.058109723481380694,-0.06382472098275,-0.0675638851425095,-0.0706576210855238,-0.07400327292938286,-0.07648155980392868,-0.07562949028269139,-0.07061794908546473,-0.065634136257231,-0.07110743463125782,-0.09988237864979539,-0.15844783761272196,-0.23804027827338625,-0.31098622643077295,-0.33466488038582964,-0.2638990183634664,-0.07115929332571849,0.2316814206197696,0.5830725802855162,0.8850914659994886,1.0404553788527362,0.9968551852923836,0.7732384363812083,0.45058234755503224,0.13159918552038619,-0.10569040758603859,-0.23365757403158288,-0.2704756921769122,-0.25520944631734527,-0.2221552011650721,-0.1895629559274491,-0.1626643730222114,-0.14094956684690468,-0.12287538329158075,-0.1077156637391844,-0.09569968318286123,-0.08712935644701156,-0.08174479147781516,-0.07866083095496007,-0.07643794879378063,-0.0737443587942192,-0.07027502959236936,-0.06658529431011305,-0.06307728969993011,-0.059447694139797176,-0.05510765683435013,-0.05011599720976705,-0.04553433629372922,-0.04271541650101133,-0.04211993349360894,-0.042822877271046576,-0.043544131246902915,-0.04402743569573497,-0.04474943300543731,-0.045724602003535085,-0.04652599742691099,-0.046940095514328505,-0.04716675494386823,-0.04767367090216209,-0.04851046464880651,-0.049092639427559315,-0.04910941744853686,-0.048907217304533866,-0.04887706619549309,-0.04896488417143139,-0.048684258542203505,-0.04766340030909667,-0.04635157355120566,-0.04560956232143449,-0.045360300057675024,-0.04441880512466442,-0.04177061171889776,-0.03717705957346981,-0.030512755416189516,-0.021466624105445538,-0.010107172976740455,0.002908395080452814,0.01689363072332455,0.031423615880361556,0.04619574179592657,0.0613862014245165,0.07760474580938245,0.09471683293021864,0.11144772962908618,0.12648104913268787,0.13937154222533407,0.15039130425978267,0.15973585513970792,0.16707226784086515,0.17213991647668248,0.1752315453849813,0.17639338706108593,0.17427894589931048,0.16640795741486072,0.15124264355558917,0.1297195778488083,0.10446123504037022,0.07804478782392099,0.05200956973177134,0.026986756977248047,0.0032403427152892413,-0.01906479263818404,-0.03961542403456728,-0.05780125840390285,-0.07288533615079042,-0.08433488382039496,-0.0921872468017435,-0.09694201951862398,-0.09909152821511921,-0.09907522361972204,-0.0974478142913883,-0.09489334515166195,-0.09221753253087352,-0.08973593686612567,-0.08648492843097112,-0.08123505040403715,-0.07425558751750512,-0.06680111571533245,-0.05952932681503532,-0.05269455484799079,-0.046802594269137784,-0.04204003256997993,-0.037854049093890875,-0.03338566610297229,-0.028166549979098086,-0.022699774028172137,-0.01801274747918432,-0.014364490228010162,-0.010931896376029536,-0.0069127221232759325,-0.00260317406309862,0.0009996278004010817,1
0.006025999070718788,0.005497334200630502,0.004400701934795339,0.0017921400238559938,-0.0033333257077102175,-0.01089347105419206,-0.019399280691217064,-0.02697384965464334,-0.03298079339715915,-0.0384459632142707,-0.044301406328177494,-0.04929139226512873,-0.05045028404856088,-0.04565155338842321,-0.03512385608451282,-0.021198589336063743,-0.007236555604507174,0.003861258317093003,0.010862980453499248,0.014500819943621695,0.016517292687796382,0.01783541662350803,0.017603514753129337,0.014212111058901238,0.007004049939660361,-0.0031486785043364834,-0.014452946666532776,-0.025184375874331977,-0.03433752507096575,-0.04148934877715183,-0.04667318892321587,-0.05057675167913947,-0.0542266228449246,-0.05836045369506786,-0.0629922737835606,-0.06690586893038176,-0.06760475954242363,-0.06328864286959075,-0.056694091591260154,-0.057287106944786385,-0.07818842890473164,-0.12819751363976437,-0.20287431357264588,-0.27926740913605763,-0.31794423612513184,-0.2740888541870393,-0.11623310593394026,0.15309149620244641,0.4850581500740256,0.7916566704902054,0.9760750937252456,0.9753399194816905,0.7915168035839553,0.49136749157686216,0.17340152031784406,-0.07788259605212385,-0.22359150511199238,-0.27315656012576606,-0.2632549258050683,-0.23097583890813628,-0.1981308066799848,-0.17112920679405894,-0.14913251282392134,-0.13063830435539953,-0.11502354102517498,-0.10202849510942116,-0.09148741744453485,-0.08313571829817047,-0.07657640532935395,-0.07145740770373867,-0.06736126002512637,-0.06367346258064022,-0.05982257303762072,-0.05566267296475816,-0.05152403494225855,-0.047632757369801076,-0.04407290371198992,-0.041489405745312194,-0.0405528670878028,-0.04075886424593691,-0.040894339405216765,-0.040452092592472774,-0.039819335504964616,-0.03935824290264798,-0.038813828750209015,-0.03762641879916591,-0.035686276872247666,-0.03355242111798039,-0.032049141879710454,-0.03177349370079016,-0.03269685440616501,-0.0343171382728007,-0.03620230043492631,-0.038076053376548576,-0.03952340828547759,-0.040085180762021784,-0.03977421670206145,-0.03911169790018528,-0.038571362021336424,-0.03817753196419876,-0.03738537251391872,-0.03528830285393336,-0.03126567469459058,-0.025251061216103016,-0.01727475528181607,-0.007390596068561836,0.004028636578192862,0.0166255899056463,0.03027403044148018,0.04453523149483653,0.05875338446452335,0.07293766382536504,0.08747628460882667,0.10202175076739085,0.11575414135841484,0.1282849259089979,0.13948199753950122,0.14908289415696152,0.1567684042621574,0.1620149786460311,0.1639111672274436,0.16150864148910718,0.15427826480508364,0.14218098773716187,0.12563407270872604,0.10546081196897163,0.0826751268353828,0.05849147528591833,0.03436563145562124,0.011494801570177394,-0.009542745960518871,-0.028572040588808547,-0.04525043468683888,-0.05861220340981975,-0.06787366374054196,-0.07369052097944168,-0.07771184926917961,-0.08091890368377025,-0.08303466820067909,-0.08362912220756114,-0.0831244919739546,-0.0822794175952128,-0.08111833497310224,-0.07885993678161096,-0.07492920276689197,-0.06969166098634567,-0.06403562596570991,-0.05873642545887033,-0.05441607033727749,-0.05137264837693634,-0.04896103996880515,-0.045791144699481846,-0.041104951864857575,-0.03551529574428542,-0.029989230300893045,-0.024773334701796566,-0.01993989261398469,-0.015983449017262417,-0.013132577062049292,-0.010885004914489141,-0.008428225663569263,-0.0052651512646400955,1
0.007870807389526285,0.007073732563422877,0.0037060341191913577,-0.0026271928443739267,-0.010897645545192597,-0.01931399399563589,-0.02687359854034316,-0.03341756736172961,-0.03878587155119381,-0.04283314516070177,-0.045514518567528105,-0.04614552633977436,-0.04328406043071511,-0.0360138992309869,-0.02500153017718134,-0.012108283662269008,0.0005595801469289209,0.011100198821463628,0.018215734200141914,0.02172431416634592,0.022192879169735297,0.019901191641272065,0.014412137406359545,0.005296996197722232,-0.006587004022179941,-0.01903606079360545,-0.030119763853297437,-0.039170168865270645,-0.04613000834688393,-0.05111721483895614,-0.054774867699919176,-0.05824916808023369,-0.06273181297598873,-0.06867095004394451,-0.07454215131280219,-0.07684244643118829,-0.07282850442742965,-0.06458721948324124,-0.061223281532777236,-0.07613599521003933,-0.11944166363945984,-0.18960565099525217,-0.26807321513151805,-0.3188403047003112,-0.2958056592790656,-0.16015573173312628,0.09628201099076733,0.43355807677649655,0.7659226063271602,0.9902128841638757,1.0303481656638154,0.8740323730140243,0.5792677458498232,0.2458115616912516,-0.03184405706598424,-0.20262739353929604,-0.2683190528663459,-0.2646011387096763,-0.23190690169875527,-0.1962881427638999,-0.16716504187258904,-0.1445925514794304,-0.12625867808169522,-0.11082773217759358,-0.09835460747580682,-0.08918335249953806,-0.08315615147931593,-0.0795711856443372,-0.07725971792363447,-0.0749253935271089,-0.07184854031659779,-0.068324132968258,-0.06504202010980445,-0.062187893565617734,-0.059727412924462195,-0.057742131461639264,-0.05599470556300674,-0.05414770269572003,-0.05228466954315184,-0.05067863852176789,-0.04946112353504365,-0.04863399029632647,-0.048186739584770676,-0.0481753321329019,-0.048679960492971956,-0.04958236176934193,-0.05026737554646062,-0.049774844485764295,-0.04772828140311627,-0.04501259156647337,-0.04298849766848936,-0.04217449212369441,-0.042170114359899466,-0.042509083300216105,-0.04305490606494642,-0.04370842565136767,-0.04394930404286605,-0.042859537108308914,-0.03991280724601471,-0.03556275636875582,-0.03074852318043156,-0.02609940897132301,-0.021662593695888577,-0.016860685153493888,-0.010589866943063192,-0.0017497145549924265,0.010145451235477118,0.02472130246305629,0.04089112307023458,0.057386857940232766,0.07338771286666393,0.0886318228106925,0.10274995251178963,0.11506369528109073,0.12573027232502657,0.13600256101608413,0.14653013040349971,0.1566604027869743,0.16548508697956066,0.1719309855225742,0.17428582196896814,0.1709987498706895,0.16160816640643272,0.14674419043761314,0.12744947197833295,0.1045545107328111,0.07911775286274902,0.053030882885214514,0.028311037023331685,0.005780910608597388,-0.015149646431810559,-0.035212061617784327,-0.05405244740605705,-0.07029702422245368,-0.08243306096107747,-0.08978321208637491,-0.09298306789200338,-0.09356920554745221,-0.09316236935021807,-0.09270796950579487,-0.09202731042814427,-0.09020069329782104,-0.08669135390788651,-0.08196088695092188,-0.07678084898370939,-0.07133089328640316,-0.06540943154453654,-0.059239437155568675,-0.05326922721849146,-0.04736361292724518,-0.04113778963864342,-0.034775512130069165,-0.029013356858221585,-0.02452523854771716,-0.021212669309129288,-0.018118519933789195,-0.014231349077093981,-0.009315795533148045,-0.003964629287770222,0.0007943536393077745,0.003858840009427284,0.0046805052852072725,1
0.00459456245792989,0.0053003360445162675,0.004057239536674806,-4.295384180041385e-05,-0.006164530573287997,-0.012962775159834617,-0.01974685300127509,-0.026433598234055358,-0.032998623980884295,-0.03919769363071264,-0.04439799845782064,-0.04708652197113844,-0.04517676627999856,-0.03777057682698591,-0.026249428539009877,-0.013406223993217831,-0.0018794115356313376,0.006878940321886249,0.012743202209616975,0.016378903182140712,0.018336017441359022,0.01820246991770642,0.014899592164709399,0.00796227844313933,-0.0019116542734930082,-0.013392323497476391,-0.025122233879415534,-0.03585307971772387,-0.044677612224537123,-0.0516210253473988,-0.05734058768791012,-0.062205124770343435,-0.06622616543704066,-0.0692601173784171,-0.07067507111654484,-0.06907884683040637,-0.06346383433055422,-0.055735524109155804,-0.05233054482923386,-0.06339281359511231,-0.09879479902550989,-0.16073575121526754,-0.23601266637235266,-0.2935655481589654,-0.2906560403482848,-0.18755078378408271,0.03180836390886553,0.3408634612358412,0.6663780905137078,0.9093829594120236,0.9867071510782871,0.8712144120271823,0.6059131585518496,0.2827113150397498,-0.0018815617269927112,-0.18801830312794143,-0.26813364770516024,-0.2730720339996747,-0.24392318329751211,-0.20957914822364374,-0.18061276088314498,-0.15641751385228025,-0.1345123380373175,-0.11446845388549456,-0.09730445984094109,-0.0839904603823412,-0.07474079685729759,-0.0688884239068683,-0.0652090456366548,-0.06248828998258805,-0.05974131995362317,-0.05638832355956103,-0.05234237306137334,-0.04789158830396165,-0.04369021747592638,-0.040405801657524144,-0.038378934315009466,-0.037610814943697446,-0.03752838358469873,-0.037324949210931116,-0.03694126011844345,-0.03684726901989004,-0.036975367089595285,-0.036792553313902535,-0.036015605458600185,-0.034997138898876186,-0.03480153630308886,-0.03626665842331732,-0.0388659976430663,-0.0413168315689858,-0.04305949243904221,-0.04444876559911455,-0.04583352803633835,-0.046988714505001763,-0.047444265497760554,-0.04715143394869621,-0.04643153579542411,-0.04530354018562282,-0.043413460844521336,-0.040566079380129294,-0.036756757076652116,-0.03194670508612016,-0.026316399313976037,-0.020198424878724294,-0.01340856966244875,-0.005170521392960807,0.005016452433251696,0.016858354061860932,0.029930300644258598,0.04425926925139849,0.059873772719524744,0.07634892716854366,0.092854740628648,0.10836020985930796,0.1221479926233541,0.13425251566893473,0.1449857173199919,0.15404609346562398,0.16075066327670343,0.16510980859233745,0.16757611884006593,0.1677269860512586,0.16417679446511196,0.15548079450786106,0.14072174582175812,0.119974891104986,0.09461126192134861,0.06693914914519583,0.039324757240039504,0.01350067793529915,-0.009546084645304476,-0.02934982050523895,-0.04581322400614061,-0.05908919409661864,-0.06931917287502917,-0.07683363681686167,-0.0823907088017178,-0.086667368625085,-0.08991500680590529,-0.09212090638847022,-0.09311638537035985,-0.09258137312525597,-0.09027827121273219,-0.08631865256623039,-0.08108576055131402,-0.0752755693242099,-0.06991710220455329,-0.06572192537835911,-0.062357330975802726,-0.05886081169628323,-0.05478564106014402,-0.05032970190911186,-0.04555313665711264,-0.04030307871803788,-0.03483773530205691,-0.02965344389610259,-0.024796618637319287,-0.020169347567938766,-0.015873923538049943,-0.011839155583042256,-0.00801648015898195,-0.004511163135594239,1
