-0.020454587875961203,-0.022038795016644283,-0.019761638771646436,-0.0150041105252994,-0.010673696207619614,-0.009465079229790818,-0.012289530395260533,-0.018265314043624848,-0.025767435080451543,-0.033256154316094994,-0.039599513918271184,-0.04404288899816085,-0.04569290177997624,-0.042824027118199194,-0.03327938118203643,-0.01635150979064794,0.0054833796973841956,0.02681565088809857,0.04181103766628944,0.04746685614916288,0.04492400516438615,0.03773959584175739,0.029256775477367,0.021269408259248997,0.014012405914777341,0.006535902054234722,-0.00282588460737195,-0.015311061199840199,-0.030450462888280617,-0.04607246821490934,-0.05931130884579766,-0.06799106928892182,-0.0719817696640722,-0.0729850856562643,-0.07266435425732641,-0.07095472482263525,-0.06624884535045164,-0.05836112971444529,-0.052496848802584956,-0.05990040396792313,-0.09278954409624235,-0.15581552737185203,-0.23811316933560905,-0.30970553220969277,-0.32555758890986675,-0.23776303519181752,-0.0144340770352339,0.3368311534255339,0.7510316288685271,1.1121852272219386,1.2932880064273125,1.2146735223772542,0.8880937373087427,0.4170452034140052,-0.05087243818874129,-0.3921275084186743,-0.5557283076883872,-0.5673729869026258,-0.494479206666836,-0.400336554299652,-0.3176660473731886,-0.2513550384543636,-0.1958442895391307,-0.14774923741948387,-0.10773325951636344,-0.07750876809104575,-0.05761539451094594,-0.04682897769692726,-0.042566385627856515,-0.041908584226704744,-0.0423587901293986,-0.04179300730442489,-0.03882007195451306,-0.03365070077981026,-0.027734510024811008,-0.02275637891938531,-0.020292852779831713,-0.021225143657727822,-0.024986026252373894,-0.030086748543601754,-0.035230938483841186,-0.03964663528549491,-0.04287923228028319,-0.04453748937247247,-0.044516133757637306,-0.0435568525566955,-0.04313029068138276,-0.0445237107819442,-0.04773642083225041,-0.05131658343140562,-0.05381048945495948,-0.05497700113403063,-0.05519194086389249,-0.05461316953345543,-0.05342240771261146,-0.052024427227986954,-0.05060938224363129,-0.04887842257334882,-0.04638765116340328,-0.04304024013756068,-0.03881103479736432,-0.03312392940503787,-0.025101187039565577,-0.014274593016128162,-0.0008087720040240911,0.01480314464046259,0.03203362811777819,0.050113864556491534,0.06798801996917239,0.08479092583522194,0.10005140458918518,0.11385033622439804,0.1270601936937583,0.1407562760079119,0.1550555074254831,0.16847076830085178,0.17833840487790184,0.18227837193631505,0.17988821169323485,0.17311573136872146,0.16451719081679583,0.15521163995982304,0.14469489792724086,0.13184882655547686,0.11577617010179862,0.09633296890020242,0.07420307918728045,0.05064458338802458,0.02704670035183068,0.00419702614963333,-0.017693029568303605,-0.038052711711858464,-0.055588759975181944,-0.06889107571659003,-0.07747518026614841,-0.08242591310330276,-0.08573789534317014,-0.08888864517616932,-0.09208153170794085,-0.09466112732056081,-0.09593392302023276,-0.09557716664658232,-0.09387581275791969,-0.09159333666919207,-0.08918880136844591,-0.08658838193629746,-0.08355297509244604,-0.07985652377340337,-0.07550357587053116,-0.07062442268160539,-0.06518232900846112,-0.05914589459727536,-0.05248400702829057,-0.045052628897897094,-0.03708294169107899,-0.02943553858825113,-0.0229346888365854,-0.017646280171310376,-0.013086968748974696,-0.009002168261249848,-0.00558384762873187,-0.0027755142131626522,1
-0.004124757877211041,-0.0032638497255240806,-0.0033779386783807657,-0.004648752289451136,-0.006861144132435398,-0.009409494037267417,-0.011789254867789178,-0.013992914512297594,-0.01668486707326458,-0.020957733397439414,-0.027332436327291435,-0.034847662816957496,-0.04143079800980314,-0.045180546635635754,-0.044947984956978076,-0.039645226553729894,-0.027985720605842222,-0.009762588346858309,0.012703221207027436,0.03426348123017405,0.04843921141098394,0.050969378365171375,0.04296070504077383,0.029963278960869512,0.017723940414068547,0.008940115393252098,0.002813949715594165,-0.0035200510083703744,-0.01248123623334319,-0.02408606532255329,-0.03630303944624322,-0.04672845544767308,-0.05394716100019437,-0.05793959674601388,-0.05884250991013895,-0.05550330857954975,-0.04680054905395358,-0.035097826469105774,-0.028671412535047416,-0.04091533372935648,-0.08402226918222912,-0.15822435975573704,-0.24379866726160696,-0.3014714580774661,-0.2814738566583341,-0.14036639775972473,0.13618113637811152,0.5120665751770893,0.8954812509362762,1.1627982976365574,1.2087889898212734,0.9993267671697383,0.5941466386735788,0.12193940847159546,-0.2796363862985467,-0.523712875167424,-0.6003587645287201,-0.5594502936317628,-0.46852592645834745,-0.37594004994817176,-0.2990460663238641,-0.2354404882497137,-0.1798386073301472,-0.13185439422581385,-0.09435381880612131,-0.06929321762590111,-0.055306177587062015,-0.048189527953974416,-0.04354201882898118,-0.03895857705990221,-0.034013619873495646,-0.029051893903679564,-0.02440579359774355,-0.020365683689577897,-0.01737237062944505,-0.01571107232148023,-0.014824172531453933,-0.013581818511518129,-0.011612677581976937,-0.009982169653462105,-0.010525546681310354,-0.014332595204422888,-0.02058994664671975,-0.027316081276079984,-0.03293012410953705,-0.036536585004254885,-0.03768751537532147,-0.03686072421238048,-0.03578315255230243,-0.03637163522072062,-0.03913553304628094,-0.04322185705729181,-0.0476568456189133,-0.05166951202428971,-0.05428528783342495,-0.05439538346477971,-0.05126346588812816,-0.045151620704781674,-0.03749556972185705,-0.02992384069026938,-0.023354839507670602,-0.017988125433890254,-0.013102059231275793,-0.007014834454074114,0.002095362585539235,0.015252517257806759,0.03226452420896929,0.052172631003099226,0.07389613662851079,0.09591340827740825,0.1161738656721448,0.13339142539501492,0.14756945462570858,0.15875063756117666,0.16647841042897366,0.1705262043872361,0.1712718169814803,0.1696675107404803,0.16671431394184247,0.16246291816063352,0.15606174609882595,0.14669499606087053,0.1336767723728262,0.11643647513857137,0.09555149286539782,0.07301600249790531,0.05094169554181939,0.0304058240683774,0.011271015805118481,-0.007126503047221178,-0.025025889610591847,-0.04208401099096924,-0.057835156724319735,-0.07183144291557896,-0.08362593794909745,-0.09291411747798822,-0.09944695421163713,-0.10287124201796283,-0.1031621380336542,-0.10128538131556995,-0.09890234979178664,-0.0974300632556657,-0.09736833724651275,-0.09787097602901848,-0.09728929704833489,-0.09449647333832967,-0.08918080755951481,-0.08167379091376599,-0.07306663007262715,-0.06442090596214184,-0.05622738653133817,-0.04902637695299386,-0.043130781389990144,-0.03789986524785877,-0.032432729302616196,-0.026410107594158135,-0.02007880318605202,-0.013930856392897522,-0.008019845563683554,-0.0018955463383098729,0.004353944216425891,0.009966071447223487,1
0.0010934629878164748,-0.00037035514381034563,-0.0010698940938694591,-0.0011429059275846812,-0.0009410867511654066,-0.0005876749679479564,-0.0008568478096811025,-0.0036265044226943257,-0.010061559384735016,-0.01906693335337872,-0.028407511595441613,-0.03645170548812962,-0.042150553453592955,-0.04447511394840004,-0.04269219567895061,-0.03630039441056884,-0.02438212862199346,-0.006491579435681748,0.014904370527939413,0.03404726503514777,0.045073188394717384,0.045504437741509154,0.03713467317088118,0.024375389504234145,0.011531212472890072,0.0009046037686810037,-0.0076597472433983385,-0.01603466054891969,-0.025918304666377238,-0.03736058539302268,-0.049089083928893454,-0.059618136569054445,-0.06790672738319241,-0.07321569193543262,-0.07450669709451845,-0.07026454290267148,-0.05964549552797901,-0.045648224332164596,-0.03803549122034265,-0.05111665702293233,-0.0957991416317951,-0.17043000198407116,-0.2543237710268183,-0.30689462856646665,-0.27575293868896866,-0.11519252189511439,0.18783628283216228,0.5906199881209901,0.9911756170009584,1.2567614655921533,1.2794761241706145,1.0318977468977804,0.5873282105662035,0.08780151582903709,-0.32266083883914387,-0.559853944287789,-0.6224668600058471,-0.5694176098770709,-0.4733994336590405,-0.3830384868733312,-0.3125445151303563,-0.25525588050668424,-0.20270484600127572,-0.15347585789869414,-0.1110221970763374,-0.07869121569923442,-0.05720923162725116,-0.04457713993942365,-0.037362258830150194,-0.0327646718580736,-0.02975918124509716,-0.028110339217891876,-0.027122808935433125,-0.02598030339630715,-0.024384830643758685,-0.02257837133065353,-0.021216283865711345,-0.020813966333140855,-0.021314879803499713,-0.02242240004272774,-0.02386632321653189,-0.025255789019312372,-0.02612099387523965,-0.026211776834240877,-0.02543764419041975,-0.023911925365665575,-0.022687724420967757,-0.023586658455411455,-0.02752943595685663,-0.03379701166768205,-0.04102464147703165,-0.04787414777982095,-0.052795348900753304,-0.054332282943227124,-0.05212013390898711,-0.04723934786283125,-0.04155947506805037,-0.03649661064196675,-0.031985910089651556,-0.026991967736804734,-0.021020391797237345,-0.014507639319078851,-0.007901889109534765,-0.0007389988639583955,0.008514150311493622,0.021451376868773953,0.03824272434875076,0.057324755782219086,0.07637549248136195,0.09354113099791532,0.10835390478962549,0.12133845452753002,0.132539795433035,0.14135886609980391,0.147822281973381,0.1527677025586128,0.15669056958221195,0.15924168787393075,0.15963220652254143,0.1570252016416667,0.15075087932932602,0.1404649522951254,0.12666664881036813,0.1110198674249652,0.09523219471342798,0.07952935019757756,0.06267331123298592,0.04360518962992878,0.022801966509049344,0.001461903865290385,-0.019830803701508155,-0.040379322272366076,-0.058461639269166636,-0.07251675269382826,-0.0823959325207835,-0.08881751010972663,-0.09247940273678674,-0.09424734747748915,-0.09558918598840349,-0.09785538119372075,-0.10087485036077176,-0.10284422960566676,-0.10197820074152505,-0.09800526761167871,-0.09173861751996248,-0.08371973643635187,-0.07423626871303836,-0.06432656598781823,-0.05563131377781799,-0.04908438446118888,-0.04430867674673149,-0.040405582109618615,-0.036840099510738425,-0.033374510117983154,-0.02952083794113763,-0.02454969526151025,-0.01835159318200473,-0.011829741122897187,-0.006029033547947859,-0.001541409187467771,0.0013531055176236265,0.002990591307569908,1
-0.0069233679401076165,-0.005778457871146313,-0.003080919666108989,0.00033386798234120497,0.00337493406840148,0.004371279916368553,0.001399207498447231,-0.006351904824502929,-0.017596006323859992,-0.0296567546588242,-0.04013957650593445,-0.0474909711245707,-0.0502130355568243,-0.04670628164786161,-0.0363768601150837,-0.02032122003507645,-0.000765194695714541,0.019355339852031007,0.03632411760110831,0.04650677031542132,0.04825778207271338,0.04311940697284132,0.03460130582307046,0.025412192778693703,0.016104848472746784,0.005752153505204817,-0.007042650191645171,-0.022885201731358672,-0.04016961801026338,-0.05563357794208146,-0.06685987569697253,-0.07362308409472554,-0.076957224534006,-0.07788809528968159,-0.07706242771263197,-0.0744462908732083,-0.06934973803241828,-0.06284968537892084,-0.06145716296430334,-0.0774548553161319,-0.12319448583254473,-0.20054963257450764,-0.2911482622650489,-0.3543296260125588,-0.33566399204444075,-0.18499382832160402,0.118584103823164,0.5416436966311113,0.9867940703459942,1.3156955705630828,1.404553536000742,1.2052875570936366,0.7746544350439344,0.2507125690008278,-0.2114739416545814,-0.5080335550132363,-0.6198558416522484,-0.5972003811916232,-0.5136391612846929,-0.42347740496908304,-0.3470367186927975,-0.28232440387897356,-0.22323393927981838,-0.1688831264679461,-0.12285174999385365,-0.08855619110712187,-0.06645130264737428,-0.0542779736544309,-0.04837438442303982,-0.04482449141693244,-0.04072720297202162,-0.03510496290786096,-0.028686134115926923,-0.022933611929787018,-0.01873537305819658,-0.015867603793156715,-0.013899937242307831,-0.012833977756929928,-0.012940933588797601,-0.014491738492694493,-0.017217633207302352,-0.020166585059792998,-0.022556951496326152,-0.024676055815440072,-0.02752699693133494,-0.031633334675947686,-0.03672398866592696,-0.04225666333240925,-0.0475576287261891,-0.05177666357978301,-0.054291113805052235,-0.05493361315527812,-0.0537530839192453,-0.051340474322888116,-0.049209286827090214,-0.04873545058461048,-0.04985391205954921,-0.05122239239523762,-0.05119628178144286,-0.04862965883820886,-0.04323059616621787,-0.03538622623025556,-0.025574449113597478,-0.013843604770040449,-0.00012958016928001428,0.015094747632278636,0.031051719080036733,0.04731787735252379,0.06395542249960892,0.08120434418769017,0.09902190446434894,0.11662656166960211,0.13267370469741824,0.1461714623227799,0.15678384854914468,0.16431232544384802,0.1685368146198635,0.16942562145651185,0.1673294867189475,0.16298860701764833,0.1572634801772563,0.1506731191157673,0.14283849240986377,0.1326139218182149,0.11885734796579953,0.10079340223548353,0.07842333811317322,0.05327561011241909,0.02807605849851589,0.005166089831756992,-0.014494766452261169,-0.030969387753002196,-0.044675782122536846,-0.05612276600122583,-0.06569389810986197,-0.07343776817062928,-0.07954992206291117,-0.08496395237088282,-0.09057514361521762,-0.09602418634660759,-0.1000598384288939,-0.1016871951420894,-0.10035488815038338,-0.09566658452003854,-0.08793557582062385,-0.07914025765093921,-0.07216598387144056,-0.06848436579259748,-0.06727947320260864,-0.0666385604256549,-0.06476386699713294,-0.06047632935893186,-0.05342142162928855,-0.044196677573953826,-0.03434490581643006,-0.02573081577309541,-0.01948155578421249,-0.015664804084543037,-0.013717406890753401,-0.012489802840012321,-0.010284658655182872,-0.005749614943252424,1
-0.005862364781454527,-0.007766065186784858,-0.009342014491928573,-0.009267893147078848,-0.006968866166038776,-0.0035404363815989244,-0.001559404611044553,-0.00370007845972278,-0.01101303172694997,-0.021945760784278498,-0.03300461157340754,-0.04084307622984247,-0.04409143854877336,-0.043291160574211465,-0.03924818559584997,-0.03181981421147959,-0.02020364574770299,-0.004118995835403282,0.014636195480466296,0.03156783937953045,0.041488049919224904,0.0416960900403907,0.033158594749772896,0.01927799933687753,0.0041166720281530424,-0.009478438757033098,-0.021365587423894855,-0.03310313342960104,-0.04529849395460556,-0.05680693270233745,-0.06615431902301946,-0.07284564615985722,-0.07743168652006428,-0.0805385490496464,-0.08152866531440038,-0.0782810594921103,-0.06939283846305049,-0.0582614036742279,-0.05561985600854031,-0.07642583255074277,-0.13091472574870697,-0.21436924328986112,-0.301857920315813,-0.3510051010866917,-0.3118627361889105,-0.14315722361294553,0.16645356273164075,0.5783201352991154,0.9974176146193194,1.294185726060164,1.35593082818995,1.1438080242312396,0.7187257016084672,0.21607362741847944,-0.21711035320235084,-0.4859491452410647,-0.5773717999214893,-0.5430046907350718,-0.4541808080419736,-0.3627971300892106,-0.2886223493436559,-0.23023080033488208,-0.1820260836502807,-0.14236151856950846,-0.11205649103070445,-0.0911496076220964,-0.07798976024922745,-0.06971534722235015,-0.06336462208322093,-0.05712361936300255,-0.050691318835348664,-0.044873750592017675,-0.040904518747327326,-0.03945363087196486,-0.03995082669444024,-0.04091761200414352,-0.04086057038344607,-0.03912892544402291,-0.03620222685129394,-0.033137158208107614,-0.031028033677388482,-0.030854949976103167,-0.03305869423219285,-0.03720656939315212,-0.04240077378170028,-0.04762530682415312,-0.051565589669040846,-0.052761872304754084,-0.05055711599217502,-0.046105803631456804,-0.04179398867533202,-0.03929576826300077,-0.03908893335684124,-0.0411757884519978,-0.04479438516611316,-0.048433587231513614,-0.05085143213741809,-0.05130960255504026,-0.049240157682226414,-0.04439884878423295,-0.037187576250462165,-0.028601876783936775,-0.01963494804429705,-0.010629990406797114,-0.001138245193592265,0.009677149374308889,0.022373866127612003,0.03726201462911589,0.05523797890998589,0.07745298489942598,0.10323335473914595,0.12881081142757378,0.14898295175046425,0.16049409612422763,0.16377334139698302,0.16189238068273112,0.15879045751988577,0.15776625964969587,0.15996965734003224,0.16371003053360983,0.1655030958756375,0.16243267119663457,0.15380800599838199,0.14046131537287673,0.12312890473678009,0.10242455358118113,0.07967495206540079,0.05657710176470726,0.03438348989362411,0.013756093723793002,-0.005148070113978616,-0.02258479266297557,-0.03902093943077542,-0.05466808586235408,-0.0690664048473052,-0.08141148703316682,-0.09104278995903954,-0.09739361526730334,-0.10012053286789918,-0.09976389484783862,-0.09777854936217596,-0.0955580206360471,-0.09376146610849243,-0.09248519374716851,-0.09152989972507009,-0.09033678359168516,-0.08804658547099788,-0.08408004203317201,-0.07850254305348076,-0.07172455644601708,-0.0643158900140973,-0.056990533293036896,-0.05034705581252518,-0.04450291836075503,-0.03907645255492295,-0.03386175634670961,-0.029027067456130866,-0.02443557472040122,-0.01962097796409125,-0.014151577411632503,-0.007705544194149157,-0.0004913919440269355,1
-0.009947487952142129,-0.00996497799395096,-0.00831673688982181,-0.0058272317793433915,-0.003498788089549195,-0.0013304571418745416,0.0008274394667006143,0.0013671417809300985,-0.0025264220816403125,-0.011848863075365652,-0.02417872906765702,-0.03521503868815495,-0.041618863420866556,-0.04293212373055578,-0.0408190299840415,-0.03623559810821914,-0.028081329672065163,-0.014823184175068983,0.0029921787886530303,0.02171062308044664,0.036096589640539675,0.04213330774890801,0.038955481632303786,0.02930539430547044,0.017898429041191072,0.008053913018619283,-0.00023817400879715556,-0.009004017609251711,-0.01972144212765007,-0.0321139514492448,-0.04471231491618077,-0.05592999798854236,-0.06479112046244642,-0.07105093869470243,-0.07463404948044976,-0.07490224294907342,-0.07069449839794732,-0.06214491630994705,-0.054110906073102184,-0.058007432854126864,-0.08783595117382997,-0.1505747474527611,-0.2363191895497191,-0.31434709618433765,-0.33820085234796143,-0.2587832959046729,-0.04331651492569487,0.3021046986017612,0.7154886385019248,1.084215855024617,1.2821749480085365,1.2263671638548008,0.9218419538635898,0.464951679051533,-0.0011703823961598074,-0.352821896119773,-0.5343231659105259,-0.5645196967025644,-0.50488706898679,-0.41620985394912585,-0.3324521721485108,-0.26131871540609464,-0.19997142319739353,-0.14777580543509666,-0.107918457091746,-0.08250911705419076,-0.06940005533308574,-0.06356911178844635,-0.06004092891431161,-0.055797806936433984,-0.05023667168422922,-0.044144907425906425,-0.03839934794776047,-0.03361681782276095,-0.030205559122869846,-0.02823931840876763,-0.027649710312591322,-0.02839035161446911,-0.02997727713960281,-0.03152769155321166,-0.03254361990629474,-0.03294236057735757,-0.032607450818274805,-0.03161902954702088,-0.03055379450819836,-0.03034640328059484,-0.03190352424418518,-0.035337822831659885,-0.039692094666178755,-0.04376349205503247,-0.046584410572391204,-0.04744705782471978,-0.04652232290440077,-0.044954881353943106,-0.04398453917659087,-0.04419054208182273,-0.04513150519860427,-0.04579608264076557,-0.045515417277698186,-0.04386392906391012,-0.04021931194818941,-0.03415198501324784,-0.025632247650281163,-0.014965310185287743,-0.0030394354000853087,0.00897519195311048,0.020653556329236954,0.03284317930217234,0.04681337057350312,0.06317227729375045,0.08176403879335184,0.10166621842758386,0.12106462903758178,0.13770265466671633,0.14989044099329243,0.15763844233177923,0.16236944988180368,0.16501257274229955,0.16538562590384595,0.16355938091929398,0.16037340153581392,0.15637770227959677,0.1510621189361196,0.1428336155006346,0.12957596215342188,0.11026877684545941,0.08624684061659617,0.0602726301857824,0.03479504046999113,0.011358937002325195,-0.009227771817130234,-0.0267451192628533,-0.04145530760824543,-0.05405791711117032,-0.06535752351138466,-0.07540874413983063,-0.0833715198495188,-0.08872543455997427,-0.09184563824231534,-0.09317746113690055,-0.09294182664976573,-0.09153160793728746,-0.08930108163052958,-0.08641499877636474,-0.083417249351935,-0.08110789336679355,-0.07950729324800966,-0.07785921098124833,-0.07566577168509958,-0.07279131523261119,-0.06886302720616187,-0.0634289752670887,-0.056300792104680655,-0.04742628181631653,-0.03728781294928247,-0.02746160869277453,-0.019876478353672303,-0.015549068665714899,-0.01409534301888293,-0.013889670201314402,-0.01281159401216059,-0.009389191387760048,1
-0.005497654545129263,-0.00958172438269279,-0.013162443862812016,-0.014751065160595305,-0.013298524985477296,-0.009132212620807099,-0.00443080237242137,-0.002132822455086389,-0.00447392496465136,-0.012004025633126575,-0.02301420397006417,-0.03413143609699316,-0.042206946191735324,-0.04583669956487165,-0.04489668009685587,-0.0389257371104121,-0.026947529331598694,-0.009197942648504176,0.011656343644443528,0.03109226178939533,0.04428028996682977,0.04825834631592391,0.04365983624392682,0.03383276348625019,0.02233319746367688,0.011206568474869992,0.00017622295649088017,-0.012656303881460275,-0.028388968887542842,-0.04582998600701628,-0.06231659366314733,-0.07528135584811597,-0.08308165376452908,-0.08482023462115852,-0.08004218485891695,-0.06911302569034893,-0.05406632754384125,-0.04036684480393635,-0.038729204909947246,-0.06281813446614674,-0.12122676859457901,-0.20786475402369214,-0.2964994846624471,-0.3430110774750044,-0.2956971610391883,-0.11330697810353328,0.2106655780451116,0.6266532113576244,1.0276130616790278,1.280347718898253,1.282696937033971,1.0169310523931674,0.5650713044017379,0.07255686051366136,-0.32009597678332946,-0.5366878178140184,-0.5835015666118154,-0.5232501726992179,-0.4281697327064337,-0.3439360612338561,-0.2820348105923217,-0.23418506164397754,-0.19042050832299107,-0.14794808198887666,-0.10989212622446255,-0.08031778094370313,-0.06081821038502835,-0.04998738216501949,-0.044815410089731195,-0.0422570649238014,-0.04017219993971764,-0.03760782224605233,-0.03464031186230694,-0.03203441639573646,-0.030469254307376036,-0.02996426356536505,-0.030047824310770507,-0.029912746916433662,-0.028649410124249323,-0.0261248434196629,-0.023462265160214588,-0.022253998850793537,-0.023564483713720358,-0.027223829626613887,-0.0314323975186955,-0.03391110492952185,-0.03421320392696494,-0.0342045581340397,-0.035837862401849316,-0.03921815490956384,-0.042951055421853755,-0.045625954022582925,-0.04695955884725104,-0.04754431796969568,-0.047402213185627956,-0.0455139679829776,-0.040776624499873015,-0.03288257135491662,-0.02288419995378105,-0.013259804979454113,-0.006601664750448086,-0.00381348945660088,-0.003596095895507183,-0.003262273759714572,-1.020057002129246e-05,0.00794501566791953,0.02062168057786947,0.03638813049861667,0.053347070762330445,0.07060451457992485,0.08809885688711842,0.10569639714549026,0.12272593620311462,0.13821383749524457,0.15113993058943895,0.16052000212109213,0.16591540859520026,0.16789252353756182,0.1676014121569396,0.16602714684277817,0.1633700525487821,0.15861972263088756,0.14997362494656266,0.13575210483406971,0.11519304948793326,0.08947600843227095,0.06201928105458297,0.0367116613729082,0.015478299438542262,-0.002412316677292685,-0.019208102688804792,-0.03685312930230608,-0.05541247534303825,-0.07290273098087902,-0.08666200279289812,-0.09498052938142613,-0.09804726789042,-0.09800062431559282,-0.0977599989410199,-0.09900961674810319,-0.10143501477191187,-0.10388244456607432,-0.10512661499800652,-0.1038073802169423,-0.09921306866259869,-0.09175862729098104,-0.08177513430802301,-0.06889880202126573,-0.05327688267061119,-0.03680812876764991,-0.0232805076382708,-0.016642189118271956,-0.018182607422087594,-0.025419790339517308,-0.0333534041880179,-0.03721337879320313,-0.03526001579783754,-0.029217907627356165,-0.02218536516326989,-0.016087915740343676,-0.01049731071598213,-0.004012108461002804,1
0.00045402518261714736,-0.0003248663020137825,-0.0032777714153162606,-0.0059232346963241705,-0.006183326791031991,-0.004115545746791701,-0.0011999662415261114,0.0005397252967240308,-0.0009913177475083016,-0.006551333613060844,-0.014393475024369606,-0.021464861799055386,-0.02594343400414729,-0.028155767528296828,-0.028777965607435792,-0.026870051286614207,-0.020415105814014844,-0.008252266814745068,0.008524380052864586,0.026383757694269698,0.04089722881045636,0.04901606630880853,0.050217094206482474,0.0456914588249239,0.03636556409601322,0.022104465745373694,0.0030188870589562553,-0.01890223641630302,-0.0398794099551167,-0.056275684742303586,-0.06628946780763485,-0.07039480893883594,-0.0709643303446739,-0.07066988827426311,-0.07056264080499466,-0.06963829942986415,-0.06613558364741809,-0.0602247270825851,-0.056894961997676165,-0.06640144780511452,-0.09995927081998342,-0.16113189534790473,-0.2366943172188048,-0.2924159489528857,-0.27818355569766945,-0.14431155673884852,0.13263186194874774,0.5236286037046,0.9373417417146718,1.2417772964877178,1.3174333375449407,1.1174722000252268,0.6973030736192141,0.1913680876683076,-0.25061021745109047,-0.5297107126628482,-0.6293905859951032,-0.5999310917393028,-0.513011044211672,-0.42032628593410926,-0.3404093683050794,-0.2712073219146042,-0.208480445992646,-0.1539837959702062,-0.11243381334466669,-0.08579113675496813,-0.07143024972967464,-0.0641608004234162,-0.05913323163872889,-0.05337149670742612,-0.045702118301536004,-0.0366181328143449,-0.02817260781594337,-0.02267799661515776,-0.021344053496460718,-0.02412992083712196,-0.029435277151384207,-0.034041691104862506,-0.03503189795321103,-0.03171960105130989,-0.02561479647335954,-0.019601966386635503,-0.016763770792113684,-0.018395224721059675,-0.022908544815591483,-0.0272565352586528,-0.029292124388036182,-0.02879823431909475,-0.027005403021518895,-0.025479528111348064,-0.02508732803958021,-0.025604887205369794,-0.02645716995941618,-0.02754271652047248,-0.028557080165816557,-0.028236419119183124,-0.025378845757339546,-0.020477095734716948,-0.01598121223931404,-0.014510903973326102,-0.016498708579106063,-0.019633391792512098,-0.020470741668829652,-0.016578796893289918,-0.00733530905100545,0.00658499590262115,0.02343584113923913,0.04075146588618138,0.05686881655258168,0.07193025226982645,0.08694650784529434,0.10230532050906219,0.11731133119599904,0.13064650050298465,0.14085438379109458,0.14697859560044865,0.14953901962415064,0.15026707805006928,0.15054096965782404,0.15049915454812135,0.1490651158462272,0.14460611473534551,0.13623600302714065,0.1244111375545575,0.11005306738534575,0.09344863329652354,0.0741630926526757,0.052068032823663776,0.02848171528781359,0.005768305553913777,-0.014337451086671962,-0.03164088026983597,-0.0469690745715732,-0.061194744489602854,-0.07460800411117754,-0.08644531237696988,-0.09519439068470302,-0.10014885521997446,-0.10191898880410467,-0.10152050334338582,-0.10018521995782682,-0.09895653314888778,-0.09753181095195551,-0.09455978507999172,-0.08908797152897456,-0.08122663204155947,-0.07187881576595687,-0.06221606548655644,-0.053560983230864556,-0.04740587651618896,-0.04435940328478716,-0.042799408914117626,-0.0398462811906244,-0.03421782084189806,-0.027366243400269306,-0.021682548902030974,-0.017971549935608698,-0.014686778736187138,-0.009475363469582082,-0.0012698576263678197,0.00861881682610425,0.016905412404931982,1
-0.005163805350312692,-0.006798340835711052,-0.008588861676971588,-0.009640901095965975,-0.009028409279027197,-0.006893249114177963,-0.005168661154872755,-0.006329216672651107,-0.011441765967119315,-0.019716659111180125,-0.029296276711616456,-0.03814055226760855,-0.04453024289576957,-0.04694144268646189,-0.04374768086567187,-0.03359602694985544,-0.016702729450441715,0.004208741905797659,0.02477340857731833,0.04059646364544562,0.04840025859410615,0.04712343990377368,0.03858918206487481,0.02669434973012404,0.01504305564805205,0.0048671109022797795,-0.004752038339280798,-0.015125635506401877,-0.02666491798258289,-0.038846130690100594,-0.050740283074530865,-0.06131059494134389,-0.06963747768986533,-0.07497936787029796,-0.07656949029863568,-0.07357263466691877,-0.06548677599725651,-0.053914502004928186,-0.04551131207077743,-0.052526167108394424,-0.08776103997300866,-0.1549754928965861,-0.23955413275851364,-0.3058074977876088,-0.304360668785922,-0.18819639870073415,0.06581158437840882,0.43498388162648816,0.8397922728102103,1.1588479128370879,1.274680355762607,1.1303690562417028,0.7621219185688793,0.2857338471310768,-0.1564133473977713,-0.45790490095332476,-0.5860999856701846,-0.5771935401422216,-0.49800980270820916,-0.4042809431689242,-0.32195636341872863,-0.2543061749243031,-0.19741938710982287,-0.1491027605537612,-0.10982086163451721,-0.08060298679221908,-0.06128793752605695,-0.05005053668523712,-0.04410046851532861,-0.040809430772464676,-0.03860516636510818,-0.03694726646997892,-0.03551117351058248,-0.03393494073968148,-0.03193893686452158,-0.029255262370978724,-0.02591808588164662,-0.022507448384248202,-0.01999612569755849,-0.019416301853900635,-0.021101884148157873,-0.024168303789452367,-0.02728015191420019,-0.029738043682600343,-0.03127189387828084,-0.03141823126580588,-0.030147186897225696,-0.028727941062253844,-0.028807252742289922,-0.030649763768319557,-0.03337216022904558,-0.03640792933471077,-0.0393677917643909,-0.04137142282485452,-0.041753766460350165,-0.040695880604077625,-0.03856910267676815,-0.03542719367272467,-0.031586165946852714,-0.027954358671686476,-0.025137152098944,-0.0223099789218777,-0.01763618968019092,-0.010052229670697988,0.00021415410542161874,0.012795308010541859,0.027551213594483443,0.04387818930952974,0.06055646224379937,0.07633699629435782,0.09061554258677314,0.10348620497580956,0.1151241454743915,0.12559008240310138,0.13500066294974278,0.14325692097922485,0.14997276458790626,0.1548568372258157,0.15772154776754238,0.1580778230264227,0.15509212976490985,0.14825203851250698,0.13781023867511016,0.12430430345735434,0.10829276237069983,0.09071146494327895,0.07246105263337976,0.05363997398838173,0.03382469534408618,0.012872020995850574,-0.008520798793105907,-0.028941343928050603,-0.04711377893232084,-0.062337849879668894,-0.0741433802111876,-0.08227834768286281,-0.08737397710122582,-0.0909590456676035,-0.09430681470671504,-0.0975011439430913,-0.09976938569439958,-0.10060574508842897,-0.1001891718381014,-0.09847977555410403,-0.09481680421539919,-0.08910957100686066,-0.08232562280802848,-0.0753789276247238,-0.06868513859276094,-0.06241022896267304,-0.05644046009561091,-0.05088057989766121,-0.046190165105019214,-0.04211169085742206,-0.037410817872944785,-0.031166960756619583,-0.023619228314941433,-0.015589910055752578,-0.007777393587961132,-0.0008882092349816618,0.004222872262532942,0.007260707976474401,1
-0.007549176835548112,-0.006894591529363683,-0.006796298394541445,-0.006754277080107907,-0.006579669128222938,-0.006930568712747711,-0.008697544791221435,-0.01238748954002322,-0.01774068691616939,-0.023675955833853752,-0.029059026202647338,-0.03315451372899618,-0.035595155119067294,-0.036619429613455365,-0.03635583324383179,-0.03356494833446627,-0.026105668837983147,-0.012611475898423406,0.006039623171592791,0.025875345452967,0.04102885668159552,0.04714829197197358,0.04368755603651415,0.0330709845058071,0.0186317450882208,0.003238915024127348,-0.011285673013366023,-0.023979131521376994,-0.0339434896578825,-0.04042657685570817,-0.04413448752109858,-0.047422027204816385,-0.052424997707952566,-0.059413208011286564,-0.06672227213177012,-0.07133221109779747,-0.07014082909084622,-0.06295801788616356,-0.05587055333250976,-0.061353153151376634,-0.09288984286281893,-0.15513536593491667,-0.2340756331473996,-0.29366621750418986,-0.2826787830184261,-0.15157126534377308,0.12260597662762822,0.5105622930553292,0.9207487901511502,1.2218558193723976,1.2966641756461117,1.1008160361795813,0.6902716788097675,0.1971252758172849,-0.23326009301562078,-0.5057483101366407,-0.6045464130095624,-0.5774506115624893,-0.4930018600749675,-0.4020723431724378,-0.32474368014000643,-0.26032555523697914,-0.20349932016013442,-0.15239728699796992,-0.10801214203585792,-0.0721232879131171,-0.0467139158394423,-0.03319489341939618,-0.03114979156012,-0.0372941770176106,-0.045579492164081734,-0.04978391565285611,-0.04706264918898461,-0.039064795762793585,-0.030005528598484245,-0.023715802495965124,-0.02162835604509127,-0.022706656442500067,-0.02451442516514074,-0.02438285061759971,-0.021374966854804202,-0.01765865217465855,-0.016676911018573708,-0.020159959580564324,-0.02727025111157226,-0.03545719215023007,-0.04186308565462615,-0.044833672312141505,-0.044447776306228065,-0.0421451825995687,-0.040224238036546844,-0.0408559286823523,-0.04491673128719331,-0.05136634713080204,-0.05738680835409195,-0.059795341780517264,-0.05719126273680224,-0.051027003069111454,-0.04460428442729389,-0.04070209377837876,-0.03957954643410161,-0.038512977400531834,-0.03341774600735008,-0.022126301773348938,-0.006176629066802386,0.01096994737231351,0.02677517946321161,0.040983535898143714,0.05516900499390689,0.07095510659596037,0.08841241662228938,0.10584424980826837,0.12112235969183735,0.13334355661021494,0.14289863767265287,0.15039274428587945,0.15605960120836634,0.1598533530851133,0.16172462105837987,0.16184436650905226,0.16060067529497848,0.15807712474498326,0.1534664129902068,0.1454598839591545,0.13295787842864829,0.11540424347108749,0.09368197296918893,0.07041377920246576,0.04831083688941246,0.028665807421880487,0.011248154411033079,-0.004951878135120106,-0.02064039746674754,-0.03593621587325126,-0.05058094138758949,-0.06372916792085187,-0.07405362986879577,-0.08049784771299481,-0.0830418955049263,-0.08289192662276199,-0.08196804167941403,-0.08185171838227054,-0.08280413097299827,-0.08395763038939673,-0.08458821504651778,-0.08496268295090055,-0.08549806042095649,-0.08531314848363811,-0.08273363966841908,-0.07713858887393513,-0.06925205476353644,-0.06010544999658204,-0.05074299191708313,-0.04232060711547273,-0.03576798517556059,-0.0315332652213029,-0.02917756839319169,-0.027055586264469994,-0.023202436554367677,-0.016602728355020635,-0.007597130348419339,0.00235838151639056,1
-0.015866088255024134,-0.013909857542550913,-0.01297701272369927,-0.012949495568537066,-0.013093960042327053,-0.012727683079502228,-0.011218919481625593,-0.008473462500488523,-0.005889578111987701,-0.005787666559653127,-0.009662004259199577,-0.0169534905327587,-0.025282803581058562,-0.031764133221771663,-0.033746563064048295,-0.028854707687587883,-0.015654375262061513,0.004916556289234528,0.02865238925974087,0.049309235861748506,0.0614470672006827,0.062334043188204125,0.05216231467676954,0.03385615398549832,0.012381265360356261,-0.007475602507885622,-0.023423914683390744,-0.035708482732227737,-0.0455582445682202,-0.05389840210984706,-0.060723541116525594,-0.06528238660899653,-0.06683179556907211,-0.06529129082533512,-0.061233792792193646,-0.05481370853769043,-0.04543194244290387,-0.034313439658450844,-0.027999809100410066,-0.038145486729258646,-0.07549894874203689,-0.14071962661928594,-0.21675018567605459,-0.2667113594017603,-0.24062505188665356,-0.09287766091277848,0.19176209438051078,0.57414020978222,0.9564408939943218,1.2101048574694346,1.2303463919803188,0.9906101085194319,0.561768264773872,0.07999762949110573,-0.31750232266918205,-0.5504713282613038,-0.6166953672506579,-0.5705445909570123,-0.4794908132958169,-0.38907005010548573,-0.31405103732930745,-0.251033516971371,-0.1947667179127977,-0.14528769221620924,-0.10572082605257524,-0.07757752502242994,-0.0590465098100594,-0.04685304254374796,-0.038555843242458594,-0.03306538582929022,-0.029864893265649242,-0.02816039870573638,-0.026799877124979384,-0.024852185467282323,-0.0220547166178085,-0.01862986208617755,-0.015118755783291022,-0.012552908026542658,-0.011830910678268256,-0.012808867234318674,-0.014686547609726045,-0.016945045605199528,-0.0195270040492692,-0.02238430152742947,-0.024983348056350996,-0.026389617700425853,-0.02618628847520354,-0.02515828199720784,-0.02458348624569109,-0.025137492297875715,-0.027064009126884274,-0.030742855546304557,-0.036020263690634366,-0.04142162688125562,-0.04488792491668264,-0.04504160509592134,-0.04184672556246455,-0.036627849961244914,-0.030914802123623228,-0.025223872853289128,-0.019648701583941056,-0.014648078230095979,-0.010388942427356431,-0.00613039173929349,-0.0005456436985321403,0.007739687754471824,0.01988664818597046,0.03642809389530108,0.05628567404600393,0.07652371500451681,0.09394752240719464,0.1070357958181111,0.1162267251560753,0.12275113094335888,0.12767072796950857,0.13171242675867076,0.13533365608704742,0.13875151551770998,0.14164589166044958,0.14302762567814423,0.14195959022444568,0.13788731939224827,0.13021386410890062,0.11853135538166813,0.10319382735231757,0.0851978012670362,0.06591807608355463,0.04684041161014869,0.028792739110873482,0.011604197455294805,-0.005296287292274965,-0.022298714742673784,-0.039307468703655035,-0.05544342906783063,-0.0693014781873864,-0.07996378143159288,-0.08743282713796925,-0.09203141963879681,-0.09402622749908307,-0.09392960655230517,-0.09272563556786671,-0.09145492693928345,-0.09057025561507266,-0.0896422137737959,-0.08754676310319973,-0.08316595554315588,-0.0761779359195846,-0.06739536264019588,-0.058316663874862985,-0.05009267883320787,-0.04317621663824367,-0.03768055139541002,-0.033277661576264356,-0.02909130699729011,-0.024273016301242366,-0.018529644527394962,-0.011877290833271882,-0.004403310852245736,0.0031993617361889617,0.009615242354877922,0.014089094014116444,0.017084818439053927,1
-0.006241572498719084,-0.005987497852108934,-0.004294462228665757,-0.001875939761583204,0.00020514539769724179,0.0007135978390712528,-0.0019432761399312858,-0.008471191480811269,-0.017343067206896278,-0.025782223594458392,-0.031928352271144454,-0.03571448115902073,-0.037992570731615806,-0.039021388957104476,-0.037646947067727136,-0.03167714886315338,-0.019417546219600193,-0.0017216007046099672,0.017526631361465587,0.033456114518092925,0.04276959907391373,0.04485225161394596,0.04106428411829993,0.033037827103580886,0.02171654301316322,0.0075632076725528664,-0.008851352384122024,-0.02628172069946229,-0.042818690896123814,-0.05646835550191198,-0.06572110067668831,-0.07020661414638381,-0.07112912176765145,-0.07053630299776759,-0.06974786306559257,-0.06836925158791601,-0.06483955962323101,-0.0590405871835594,-0.05604438461278139,-0.06681356397247262,-0.10258662201927513,-0.16578134949547071,-0.24275125644535933,-0.3015103366553022,-0.2967798979597152,-0.18408717804935446,0.05925281851041713,0.41299828399289135,0.8032831303893448,1.1155895632279464,1.23666417499722,1.1086302822900964,0.7623782830166101,0.3067764774909826,-0.12157887454983149,-0.418936721827604,-0.5512460725101911,-0.5500323780459002,-0.4771920122692839,-0.3861707484561705,-0.3032987016362225,-0.23329889064364034,-0.17431900638412842,-0.12659504111505956,-0.09171329247929963,-0.06935882108846526,-0.05694729104690421,-0.05116293566274945,-0.048924579357423836,-0.04769683423397178,-0.04592018463060417,-0.04325170380280535,-0.03989506910854057,-0.035872277405613016,-0.031260916132702654,-0.026570657133509784,-0.02269281338771811,-0.020652053100903754,-0.02096753171868531,-0.023171425147736714,-0.02618625604291261,-0.028865590061028328,-0.03032651170059373,-0.030575701582145738,-0.03062197329863647,-0.03138711226017597,-0.033007631124700086,-0.03529432419840089,-0.03803230067451236,-0.040539979476407945,-0.041324925721561254,-0.038835345781477314,-0.03285764978810629,-0.02494452196585402,-0.01770133775808605,-0.013674066836486578,-0.013773307688053616,-0.01632398627888477,-0.018324532705323894,-0.017661402737536566,-0.014094207102514278,-0.00881546509449929,-0.0034513369434106683,0.0008605794321167801,0.003986973898734342,0.006737344609602958,0.010571639431275025,0.017124621656083125,0.027218251632543097,0.04036293055849825,0.0555202656632481,0.07206665956818945,0.0895521301720293,0.10657056765903794,0.12082315574209934,0.13061889545836824,0.13582943961673247,0.13746869302231518,0.1365987989915142,0.13365951005611099,0.12874431018820517,0.12226796925197672,0.11508369485766538,0.10771542421080094,0.09968452179796902,0.08983726589003774,0.0770450143668281,0.06084223377372159,0.04211328495616785,0.022755014038599974,0.004209639141618593,-0.01305644395405112,-0.028932429414220546,-0.04344622663971541,-0.05690706837174164,-0.06971234112491362,-0.08155448645588284,-0.09082943686087383,-0.0954947997628488,-0.09455760197684321,-0.08886987113035413,-0.0810058681856856,-0.07400083059226331,-0.06971760928390183,-0.06829084532309783,-0.06876309008250966,-0.06998313075650338,-0.07082597819985371,-0.06990306358171514,-0.06599041032207341,-0.05897719559268518,-0.04973393133203397,-0.03925248943722416,-0.02866087109609227,-0.019458312746426364,-0.012828281899008944,-0.008877979038322636,-0.006752702539417739,-0.005309467917560071,-0.0034604886477502296,-0.00016637561858742073,0.005112376262182713,1
-0.006933395733289381,-0.013236730532799092,-0.018001937335721092,-0.019428378200121187,-0.01792034211219339,-0.015787205867139692,-0.015196434865286546,-0.01697684115227462,-0.021087285604461055,-0.02679714356892866,-0.03243417511618369,-0.036225307217597584,-0.037493887777793805,-0.03671471053804129,-0.034463144654544156,-0.03017781141246607,-0.022222939768591583,-0.009609627000749573,0.006431705955182735,0.022720191625039306,0.035929767176568615,0.044045539649834126,0.046238115029940546,0.04212560348407513,0.031651388004017594,0.015341318986472181,-0.005240972968130437,-0.027193645689330897,-0.04702150270726644,-0.06178026438197662,-0.06999839917529599,-0.07263228857301342,-0.07280983840917737,-0.07351220927806268,-0.07519594414561755,-0.07567932170318628,-0.07213525790265096,-0.06396252390506404,-0.055900473730759175,-0.059272271333372886,-0.08802424832185503,-0.14934602082152143,-0.23304376196914547,-0.3063684035863862,-0.3193176512007409,-0.2200146089636952,0.022741622315347414,0.3945475937010638,0.8205409668915505,1.1775491832479135,1.3385398641928516,1.2313861842215956,0.8783316984160363,0.389605389457081,-0.08749190886589484,-0.4338388469713224,-0.6012236583955213,-0.6138140331965298,-0.5355711760914004,-0.4285752503071652,-0.32840518512190053,-0.24578353144772735,-0.18105874375459682,-0.13335980457876345,-0.10125518932645841,-0.08157055968141097,-0.06984274082432808,-0.06172126174041598,-0.054125457814171794,-0.04606392115707127,-0.03879042587821686,-0.0342482706387234,-0.0330606131736261,-0.034225486209668435,-0.035823065455102644,-0.036068242229600915,-0.03467652977918976,-0.03287837936949953,-0.03202302785570349,-0.03236398049187136,-0.03268572084450189,-0.0312787076740343,-0.027627135070786863,-0.023148731430948345,-0.020468738097458514,-0.021714633300209014,-0.026954034893975118,-0.034055052875193434,-0.039983478258993885,-0.04250717435766071,-0.04129874137610169,-0.037797721597292465,-0.03398768443084872,-0.03109237885438166,-0.02940174144108257,-0.02886366350564079,-0.029219237174187708,-0.030085019813751272,-0.031276745250511474,-0.032560243347257045,-0.0328566370835311,-0.03016348247944508,-0.023021745356778343,-0.012063264134507033,0.00032183375738803303,0.011898109715263928,0.02233709770801212,0.03350555335618761,0.04803183472962654,0.06674722747576897,0.0871599373991237,0.1048965108316256,0.11654394037015514,0.12130359375467116,0.12068691342651332,0.11694189883764647,0.11207667744127284,0.10792212166332363,0.10584074791003933,0.10643319565663188,0.10986683018127742,0.11542331906920646,0.12049375851687806,0.12138586017600403,0.11578264077115871,0.10402132438719142,0.08798327255872034,0.06931349144317968,0.04891859532556947,0.027577342634138233,0.006427593141239155,-0.013026929819686596,-0.029282627993941088,-0.04165931073743801,-0.051138438419167355,-0.0598800542074055,-0.06938649297501617,-0.07944161822061725,-0.088618118516912,-0.09513610689312475,-0.09746908277870867,-0.09498500314194384,-0.08843944114348304,-0.07982725143340906,-0.07155978526671897,-0.06516666818686663,-0.06060012285324839,-0.05697898144249209,-0.0535052452765343,-0.049459847264209024,-0.04414232434749448,-0.03754557400056846,-0.03063261530962184,-0.024399849288814487,-0.019259599828990497,-0.015327073061569739,-0.012582506131245171,-0.01104339664371211,-0.010777390468555796,-0.011186157330436458,-0.01078426716170059,-0.008215839889581446,1
-0.012906958590060982,-0.015663216462042072,-0.015937714017444957,-0.013692639684141939,-0.00973097573499125,-0.00522711308717496,-0.0017310516748587832,-0.0012113924398514564,-0.005018272311417771,-0.012740599484946491,-0.02258198620255029,-0.03247669650310475,-0.04058333707417755,-0.04548741593768833,-0.046398766491916044,-0.04291160733137972,-0.03489989752314344,-0.02283466374183481,-0.007852183387264768,0.008262052929064373,0.02299915076684989,0.03347422023321985,0.03741091122189841,0.03436362054731601,0.025993302968794055,0.014800413041138346,0.002566591393502998,-0.010285946352311772,-0.024080434115102536,-0.03837498593109249,-0.05123806207677911,-0.06034264551042339,-0.06474196095892834,-0.06555418981995682,-0.06477990266978582,-0.06324645514016264,-0.059745263544489176,-0.052485713802897294,-0.042171757208660884,-0.03511211977111143,-0.04359926961800642,-0.08012194573867068,-0.146192221680961,-0.2224518783791897,-0.267283189782825,-0.22720859309319605,-0.058055519109505835,0.248288743481854,0.6427848279000501,1.019846623428665,1.2497464559224498,1.2343271075840643,0.957894621082185,0.5008368568717967,0.004028224908903744,-0.39544011899288234,-0.6204647306355913,-0.6733628466738483,-0.6124973632069444,-0.5073863974506295,-0.40436518474677097,-0.3188864100175876,-0.24807141406188923,-0.18678848607165754,-0.13480232871159312,-0.0946303247779362,-0.0673446345021012,-0.05122004189532515,-0.042575632222424165,-0.03722096833881826,-0.03195531833291128,-0.02531400029039686,-0.017486326679824356,-0.009921563174458048,-0.004757180996563429,-0.003818809288626393,-0.007300600704334921,-0.013130070527264327,-0.01792097513516046,-0.0193121758780187,-0.017520178724299652,-0.014656770787709007,-0.013240084051150862,-0.014598243387409742,-0.01781711794961839,-0.020754882868327468,-0.021910778440132873,-0.021473546764009414,-0.021289976631707272,-0.023429161765514628,-0.02841892602714386,-0.034749045167910615,-0.03979099292559742,-0.04150938294440894,-0.039765324380344226,-0.03599536227412675,-0.03182194343389133,-0.028306333846267885,-0.025976297981974854,-0.02477878914140999,-0.024099851258112526,-0.022864432945330186,-0.01955095012426116,-0.01283687387548547,-0.002582763337684372,0.010383828169712525,0.02524529952197619,0.04117444773438598,0.05673106797573155,0.07029441273743241,0.08143241967401026,0.09128920245120055,0.10126219371727882,0.11165351786750405,0.12157680730516945,0.12972860978599215,0.1350910435060671,0.13741656717440867,0.13762728622115117,0.13704768337552198,0.13582474222130317,0.1332168262221047,0.12915121600616322,0.12389212680195014,0.11682064376408345,0.10681778393902051,0.0932698110065463,0.07632195948692533,0.05657405336760115,0.03480633748538128,0.012035519035464935,-0.010487556347819248,-0.03154238344268713,-0.05024485042531042,-0.06607577943541855,-0.07858394829549864,-0.08751269540965098,-0.09349557374461182,-0.09796055849406672,-0.10184474975159985,-0.10482545173210622,-0.10597164909820161,-0.10462005361422869,-0.10053288917697127,-0.09380770767358426,-0.08509089660529312,-0.07572281179952492,-0.06710557924139277,-0.05985922644096073,-0.0539865824385272,-0.049347991789228746,-0.04539389676381448,-0.04123670328528188,-0.036404241563138304,-0.0308416061224868,-0.024445430348043216,-0.017282309393151632,-0.009893977567433163,-0.0032193497700047802,0.001664209797412752,0.004244807822994369,0.005192533398058197,1
-0.012251606868793117,-0.011849809115864357,-0.010136847854319848,-0.007649776198222551,-0.005468757058764315,-0.004929056787534183,-0.007706262895752201,-0.014423913203181846,-0.02313758316099823,-0.03045766470016015,-0.03418886659838611,-0.03446651771969554,-0.03319261405849086,-0.03269695821277487,-0.0334839468866348,-0.03281578360183557,-0.026461754128559004,-0.01208236533517603,0.00871049509868609,0.030619486975507537,0.04708245278675317,0.05377067261651805,0.050913970992701424,0.04236435256122791,0.03209402315085319,0.021356848976584297,0.00877881940625029,-0.007273242586811794,-0.026494060808985163,-0.045900588337634184,-0.06084575920591963,-0.06800387021856984,-0.06797852820164665,-0.06441755362532244,-0.06063796935433944,-0.05715069477292821,-0.051961666789910606,-0.04396618565681518,-0.03731056510493422,-0.04247338371430115,-0.07142446720267541,-0.12808123310720282,-0.1992114382076017,-0.25163304992216573,-0.23851631226510767,-0.11505324354089701,0.13834357870312655,0.49296908100827364,0.8638451269819704,1.1309061361843975,1.187915367107817,0.9954067916973465,0.6051043251435201,0.13849868051793238,-0.26916134830808947,-0.5274304260271708,-0.6198444034762001,-0.5909085717878708,-0.5056192190183573,-0.4122706743526626,-0.32987244554671274,-0.2581488933822613,-0.1933881659367515,-0.13661664902846476,-0.09219842130676212,-0.06264913018849914,-0.046206521595792374,-0.03841919669147718,-0.03433029444740653,-0.03012585039222065,-0.024572948827707313,-0.01833934942512491,-0.01201121869702656,-0.006045639621560206,-0.0017121485976754475,-0.0006280606570804679,-0.003330828225728947,-0.008371123177210832,-0.013081414717133064,-0.015492782932003827,-0.01553424470573272,-0.01484693120527607,-0.015518063181836435,-0.018456411345661623,-0.022824519681224002,-0.02716294152108465,-0.03073414368888199,-0.03337695475039136,-0.034734775367030436,-0.034503261767736965,-0.0329376102658807,-0.030469981701227094,-0.02744265729233373,-0.024527952107282106,-0.022725065460230204,-0.02278892091937163,-0.0245655328077847,-0.026710732395993163,-0.027329034635681725,-0.024949124992848595,-0.019279530876623534,-0.011241523946332922,-0.002167262949127527,0.006964936152023548,0.01612383024777759,0.02610711982044322,0.03742172700297548,0.04969554611740665,0.061991881273784036,0.07328627704066402,0.08313289094721722,0.09195540376056117,0.10036499798471013,0.10862853679636668,0.11691321328672906,0.1250590236081542,0.13186078362979048,0.1354795753090371,0.13499166293322598,0.1312814437383536,0.12624245340766543,0.12124755147067366,0.11653381117529331,0.1114122932503355,0.10410855362302139,0.09203769565472607,0.0736192364098945,0.04973659025104184,0.0232082352315231,-0.0025750430307255774,-0.024936948985773248,-0.0427579405361551,-0.05632590594422143,-0.06674809904679374,-0.07515466203394208,-0.08181560564974466,-0.08639546532058091,-0.08915976480559556,-0.09131842555590253,-0.09370745045189272,-0.09540487448157842,-0.0945860849810643,-0.09068229234477977,-0.08485236678035424,-0.07870811375145455,-0.07343060417886907,-0.06967039848989526,-0.06740599504683997,-0.06587921936688314,-0.06373682969928399,-0.059478142088245624,-0.052441678655923835,-0.04314984838283006,-0.03270280398903581,-0.022594471432014675,-0.014333742280719868,-0.008327803052851567,-0.0038672932458878213,-5.2540286794640345e-05,0.003770988756232189,0.007574466710282878,0.010651776016516226,1
-0.005760312196105818,-0.007296773959167597,-0.008041376918046905,-0.007471295202267814,-0.005736059247279838,-0.003839203920891481,-0.0039155955318155074,-0.008098586806039603,-0.016773005714431983,-0.028238753530139746,-0.03951128974536474,-0.04761218755910727,-0.0507584988858729,-0.04844798129644155,-0.0407626128235887,-0.028022532618889876,-0.011049768081103336,0.008284018042292333,0.026689641181107428,0.04026923951606682,0.046467554517267765,0.04528819849237142,0.03854845217565121,0.028029378870165426,0.014698111811458206,-0.000511077691416693,-0.01635961800816218,-0.03179998669312296,-0.046202118167879114,-0.059230260811888966,-0.0705029729628785,-0.07943841834102078,-0.08555021455122866,-0.08875967258097738,-0.08911061049079627,-0.08579402231041228,-0.0775397645839563,-0.06577928741238953,-0.05799651560094721,-0.06749504080581492,-0.10743881192372476,-0.18048592277619832,-0.26909296022064355,-0.3325429232164121,-0.31528251084003256,-0.1668727697147827,0.13140885843533168,0.5431263875100225,0.9711683089408951,1.2825402474425043,1.3607810820939437,1.1625228744572011,0.743745854026995,0.23615129289338005,-0.21301948115918554,-0.5031310931514066,-0.6119117965408504,-0.583774434088842,-0.4888927772338441,-0.38339941548283424,-0.29351280249244105,-0.2234806897636039,-0.17009593082060614,-0.13036608494605678,-0.10225795346154154,-0.08347760578815401,-0.0712582692538502,-0.06328636434633897,-0.05830754711717154,-0.05556526166286332,-0.053831552468782067,-0.05143850093084256,-0.04731158355790348,-0.041547909236003995,-0.035152167975924686,-0.029599417726707242,-0.026068465293621747,-0.024805894967255146,-0.02542856390364541,-0.027389955762615575,-0.030191780644731162,-0.03348969849482822,-0.03675977228804232,-0.03895440914549254,-0.03889119492675592,-0.03611982915477131,-0.03168638391108083,-0.02812566729557619,-0.027919749006430454,-0.03149993597802946,-0.03700344333391452,-0.041812556248587915,-0.0441015434922026,-0.04336813379878314,-0.04031114823550647,-0.036479604460404755,-0.03337959091453361,-0.03146457767024061,-0.030160733215768197,-0.028592466043133237,-0.026049983298403658,-0.02205092252816162,-0.016036692620772904,-0.007300299757368541,0.004394565721116505,0.018108148911383716,0.03191560712665262,0.04437636623807924,0.055777745339259305,0.06760256626938643,0.08090107944254007,0.09503886647370377,0.10806909318691367,0.11836015415388067,0.1252885337594979,0.12890702432262258,0.13004456768041042,0.13012381077819873,0.130025157046994,0.1294931603047078,0.12783268780280457,0.12447989546249671,0.11892007432830096,0.11099042769056693,0.10103517985082741,0.0894683385061226,0.07667666355692529,0.06264373184231703,0.0465623569200964,0.027918086623116824,0.007572092921205326,-0.012606838022286713,-0.03055652802398041,-0.04495370795926033,-0.056129324604899535,-0.06559850821766625,-0.07422733593139096,-0.08122198517606065,-0.08524052225765674,-0.0861775583196435,-0.08528722456819594,-0.0837282613722023,-0.08172640917107016,-0.07895770842256121,-0.07485065470274418,-0.06904917318173324,-0.06250959417740919,-0.05704574477961651,-0.05329431557102901,-0.05055326118219734,-0.04814097439650055,-0.04532024858301867,-0.04104772323241053,-0.03510284646742483,-0.028476505413560522,-0.02243094708979825,-0.017715232866473293,-0.014259197462316572,-0.011465037265789929,-0.008875113844820915,-0.006415454781497321,-0.004184075899460692,1
-0.012988176842301021,-0.013022521788989981,-0.01059424655093377,-0.00702075809624926,-0.004434301737137675,-0.00485832274932599,-0.009423396216175675,-0.017785135823462687,-0.02804805943399085,-0.03734022550403675,-0.04298618593682888,-0.044150948780933244,-0.041910531445999974,-0.03699654311562078,-0.02858215616307047,-0.015823510975865342,0.000299174620327716,0.017090853189054216,0.031655038927950255,0.04195556633936237,0.04695523178726438,0.04652664757698113,0.04143957561590052,0.0331381155999486,0.022785333880900524,0.010319941355819737,-0.004741431678205205,-0.0215526601848078,-0.037967365802046266,-0.05215908447055171,-0.0634126816078959,-0.07163925169446184,-0.07683334957331735,-0.07921441077683533,-0.07934286106844507,-0.07715176606535311,-0.07158934394915113,-0.06292677965725318,-0.055775457443832575,-0.0598538150919716,-0.08698482876558124,-0.14365880098709405,-0.22158714956038553,-0.29225822088321607,-0.31019173239360526,-0.2253745534317525,-0.003919257810651805,0.34675961537508665,0.7605914836758407,1.1211407553074677,1.3023159777259137,1.2252208453279443,0.9002186015073768,0.4273147013263895,-0.04913679303261275,-0.4054203801231409,-0.5857483919161208,-0.6089022790287075,-0.537416687915333,-0.43462172447662584,-0.3380262617255466,-0.2589455154348827,-0.19606390622531364,-0.1463711841212945,-0.10846683540320143,-0.08182324787241751,-0.06543538185374818,-0.056914028023568375,-0.05281880977880119,-0.05035392168961614,-0.048138908400664426,-0.04528103539629898,-0.04115601190175009,-0.03612699348396667,-0.03136373556563523,-0.02787748821828511,-0.025978453927001134,-0.02562008189237189,-0.026698019654201086,-0.02850781763627911,-0.029671743673804388,-0.029280247882720892,-0.027652725544281834,-0.025802864913480404,-0.024698363770713633,-0.02498059980023338,-0.026834131409201045,-0.030073500213956248,-0.033999112820977256,-0.03694901847274473,-0.037214789785073005,-0.03496726435617926,-0.032189685542255785,-0.030361756770207176,-0.029313542658511858,-0.028611008111737626,-0.028553369187973035,-0.029277259369337,-0.03000158788214835,-0.029521090847223992,-0.027092202661283926,-0.02260132192226821,-0.015990762978204384,-0.007264866535140186,0.002884991175226984,0.01313649193038338,0.02239341518750597,0.030667384138011945,0.039311324313170526,0.05035368912080236,0.06499817619488707,0.08220597901924512,0.09905917472787223,0.11271401385794501,0.12198620766954642,0.12742518292895344,0.13025633429121924,0.13152739791945964,0.1319265908247253,0.13174245297017637,0.13087853489576687,0.12892900253111408,0.12538120191648072,0.11986585931520437,0.11197870518854226,0.10096521543563133,0.08629386104511454,0.06866956327205344,0.04963084374325801,0.030525448323047048,0.012518030046266795,-0.003663491352701845,-0.018405889248115644,-0.03272590235286718,-0.047084187770973326,-0.060741442882488283,-0.07218132539072844,-0.0803723828735813,-0.08543457090265609,-0.08818033502738132,-0.08942344724318811,-0.08956067429400172,-0.0886125846895508,-0.08656666272829247,-0.0836344746864685,-0.08018803720777157,-0.07664686201996734,-0.07336788226610413,-0.06998434114751947,-0.06541753566562472,-0.05919391185112145,-0.05180105758281173,-0.04397278396606065,-0.036473171516870545,-0.029913552077394608,-0.024561879905908468,-0.02036902801172713,-0.016728547329418864,-0.012848740259288493,-0.008812481008921428,-0.005359633153444907,-0.002493509548120698,1
-0.006701345717996583,-0.009988029112692176,-0.010925767225843163,-0.008987150178698106,-0.005249883194825477,-0.002134170084912249,-0.0027182875486279406,-0.008906590937802675,-0.019489144791275816,-0.03072938614940557,-0.03928690329339369,-0.044197242968000025,-0.04608501340779079,-0.04510517162716722,-0.03995880352852949,-0.02885009687229598,-0.011403903775481177,0.01021644277999607,0.03163799607698442,0.047701592229362266,0.054518480491075993,0.051266013521524365,0.04053417355192715,0.02666277186513806,0.013235910189673225,0.001506660056063063,-0.009816577192082912,-0.02319539031446423,-0.039696705620193756,-0.05761751704832777,-0.07359299302822421,-0.08464149270492188,-0.08926334616682954,-0.08771314289384097,-0.0820823742400068,-0.07510991052880138,-0.06810668810845301,-0.06142062148945081,-0.05827233912058763,-0.06739988646956052,-0.10006061702249966,-0.16185527511515557,-0.2430851393894727,-0.3127870489190726,-0.322058605579365,-0.21916170591157105,0.02649413287301649,0.3992151271679682,0.8234256915634725,1.1766826466921108,1.3337738330360647,1.22412557131992,0.8705032177714808,0.3833024359011939,-0.0899119783154802,-0.4302329599793775,-0.5904888516975462,-0.5960693267136019,-0.5117639655555076,-0.4007723212161355,-0.30035424797989824,-0.22164149380580822,-0.16308591176040896,-0.12143902002939314,-0.0940517606855636,-0.07765176061301048,-0.06866621704688433,-0.06419542548069555,-0.061940407355942306,-0.06001956425510464,-0.05721478105057676,-0.05296583178917025,-0.047142266329537594,-0.040311562770015553,-0.03391311111894697,-0.029186882251955815,-0.02625723425817373,-0.024927478544611796,-0.025537666666801392,-0.028186488355277227,-0.03167131807221546,-0.03423214833037428,-0.035189471107287706,-0.03491822054631122,-0.03380170079663127,-0.032272934327863365,-0.031219633586346093,-0.03152130461075873,-0.03327403780837247,-0.03563229901157759,-0.037254636206835175,-0.03719988810088745,-0.03591939969705645,-0.03467923101114336,-0.033791550566081976,-0.032621347761429664,-0.03130311923558242,-0.031134471261548988,-0.032911258806504085,-0.035469026526200244,-0.03626940525594338,-0.03319878431072431,-0.02560139122267733,-0.014291773855023619,-0.0010752002815699845,0.012063700039569266,0.023683340995351704,0.033502345426587074,0.04261051408718047,0.05250777745614656,0.06382506883163441,0.07628757209521647,0.08943978439389436,0.10274768417492863,0.11523575474283607,0.12548432609119486,0.1321036684914017,0.1344808855699961,0.13322591087848143,0.12980701487801238,0.12580013579846094,0.12220022829314517,0.11898446838623547,0.11528899261058836,0.11001801446293301,0.10207134934177185,0.09020869910199092,0.07351353782313053,0.05244313304148549,0.029222198762072386,0.006839697518422873,-0.012363593986214859,-0.02731687334552622,-0.03822372160860528,-0.04624007292555142,-0.05289015398811777,-0.05953028072930629,-0.06701083303261582,-0.07522537113971939,-0.08270778638038459,-0.08748822798675977,-0.08867514888755376,-0.08668813791542654,-0.08238964004519106,-0.07648644810379944,-0.06950679474342188,-0.06225513355735466,-0.05587648540730795,-0.05116152526302076,-0.048058169355382645,-0.04567666743331189,-0.042892632883462505,-0.03934016248437017,-0.03549232497828637,-0.03184707915022259,-0.02840060238028573,-0.024693730443824814,-0.020384486818222386,-0.015942820018160546,-0.0122030245978238,-0.009008334650919894,-0.0051697172921338404,1
-0.020594060025797414,-0.01791027822594257,-0.01223531912449101,-0.005959359486526345,-0.0018718386907212118,-0.0019020343534734,-0.006390211540351061,-0.014052248757442605,-0.02261785267189063,-0.030022081828226965,-0.034985727786355975,-0.037213039413268645,-0.03757916355403905,-0.03702143860325897,-0.03495600615729474,-0.0295257564257004,-0.019340434262848843,-0.00473384230291266,0.01210993814915424,0.02783023677340203,0.03917131834235703,0.0438999316467418,0.041151917967241124,0.03200493176424371,0.01901335955352057,0.004465948683309194,-0.010263339601275017,-0.024264067337696118,-0.03680216210233442,-0.04696296821380097,-0.053808093665089395,-0.0573420699142887,-0.058652203286860286,-0.059017824333103826,-0.05921637186584054,-0.05866492481516816,-0.05508096753052811,-0.047573464023023065,-0.04187158339694946,-0.051028078166366925,-0.0882475551857291,-0.15603910033777188,-0.2377937543450599,-0.29560000363840866,-0.27744183901514885,-0.13584422652844977,0.1457724019538816,0.5304697960233878,0.9237702022469709,1.1992394890514115,1.2497746685679032,1.0401283775299157,0.6290328945548435,0.1448059037864072,-0.2734185348508654,-0.5353253583307812,-0.6265757923797859,-0.5927834378928466,-0.49905089599658703,-0.39495605640188786,-0.302578202342491,-0.22525743654625704,-0.1617794480854328,-0.11293166952504248,-0.0798053037212999,-0.06090856802597085,-0.05234475291221567,-0.04935960399203277,-0.04743064742075213,-0.04354802400778007,-0.03718115591034616,-0.029760847238077898,-0.023153949948757406,-0.01854887255633507,-0.016467565499293485,-0.016907300019198893,-0.019074740748422803,-0.021534299354326332,-0.02289607008319909,-0.022593389905020304,-0.02111580249462168,-0.01933150417796542,-0.017867408750231035,-0.017322436925370492,-0.01849534794433208,-0.021836932812568523,-0.026929805861394346,-0.03283581252383409,-0.03854230971785086,-0.04298638203675674,-0.04526744076232653,-0.045005796038022856,-0.042359488427774476,-0.037760626609884565,-0.031882460875782406,-0.02613463316592711,-0.022443897864834767,-0.021690997155277773,-0.022925079681040378,-0.024275834693331562,-0.023994623165790332,-0.02094712383025795,-0.01482665112700296,-0.006156591339660931,0.003972343728409367,0.014546954862995825,0.025255508268071665,0.036576230539033104,0.0492775632630786,0.06365003843342414,0.0791216421379545,0.0942346088596251,0.10696682618577871,0.11596370122926425,0.12159105417109828,0.12530890043078877,0.1285160903198106,0.13232236059077043,0.1371738206499638,0.14191383731322102,0.14415576326214005,0.1419298519009586,0.13458217803807987,0.12261403318317032,0.10721535705042033,0.08967444593246635,0.07085663979753952,0.05121617810938527,0.0313868480180897,0.012386226121049608,-0.004872750210403162,-0.019884657885189345,-0.03286819334660261,-0.045109219756362604,-0.058084932791837275,-0.07179927233681577,-0.08438671815571609,-0.09348202154758195,-0.09787130856868048,-0.09794462681511602,-0.09497823392907906,-0.09049989854873111,-0.08590784312080983,-0.08179259437360796,-0.07801056644860224,-0.0745006431218577,-0.07114322394803718,-0.06748117226638589,-0.06337626658974886,-0.05908514432746724,-0.054402196331883944,-0.04847945994278662,-0.04089420141890693,-0.03262157273778363,-0.025473354668971562,-0.020557032565689644,-0.017576274752217607,-0.015456187944627378,-0.013030192166315555,-0.009255201476689326,-0.003640724814013325,0.0033995731987755337,1
-0.002093653704149842,-0.003961091237492962,-0.005502374016835804,-0.005926812684142494,-0.005250859660756373,-0.004484863746920269,-0.005122696070611221,-0.008364720408662605,-0.014508716239666349,-0.022725865565910178,-0.031485149413604065,-0.039492190839759946,-0.046046199778027805,-0.050507107868001874,-0.05162446462278814,-0.04753862567403429,-0.037007647820116646,-0.02047833146818847,0.00020405395055706063,0.02178887463328824,0.039335277905121833,0.04837523959948926,0.04813764382051277,0.04138159745885334,0.03130403172928888,0.019612697200542747,0.00673439755433841,-0.007400612255144041,-0.022560508326557066,-0.03764811314905265,-0.05085733780997416,-0.060633060993723696,-0.066753835359634,-0.07028930754595139,-0.07229879550177806,-0.0724799339192283,-0.06905499474884642,-0.06050875637956148,-0.04911584418621788,-0.0441894401244727,-0.06048529417006963,-0.11016359945160659,-0.19164258986949315,-0.2804388232492183,-0.3289319763644303,-0.2794613836815146,-0.08796988853424303,0.24897657837903664,0.6750254725080664,1.0772017607675837,1.3205654016197672,1.3059330310066113,1.0212634795961397,0.5533359172890421,0.04848705144907967,-0.3548401162990302,-0.5817625329382065,-0.6369657024339558,-0.5793515340654598,-0.47747119580376407,-0.3765166669108069,-0.29253955594955405,-0.22515671621055863,-0.17082676960918936,-0.12792064688383106,-0.09604492586167974,-0.07441721021721975,-0.060975106068957535,-0.05263301790239326,-0.046874010361017536,-0.04295394125696421,-0.040976013522031625,-0.04016410612838217,-0.03869636957610952,-0.03506387291897317,-0.029366880369423476,-0.023535306723977675,-0.020044673497546156,-0.01992449294380088,-0.02230116037316841,-0.025798562205980667,-0.029565286886293826,-0.032979111336311165,-0.035272749323516185,-0.03602348647318385,-0.03565501100209256,-0.03501725288144853,-0.03481364516134801,-0.035615108625195464,-0.03773001188096856,-0.040588994698955265,-0.04282757239656036,-0.0433735319836826,-0.041956177242573604,-0.03866361375044546,-0.033989118236598746,-0.02911250528100981,-0.025201400238767286,-0.022560153749002027,-0.02065043346132222,-0.018906132176954416,-0.017218144661178207,-0.014874664066837488,-0.009829861669635339,-0.0002993193802191471,0.013376918045233143,0.028894953477731182,0.04357338412284564,0.05585362182952627,0.06593927528306714,0.07544211821811893,0.08613077241476369,0.0985966379968491,0.11199553161970448,0.12469804218091832,0.13498810813119133,0.14170369970565266,0.14492282546352703,0.14580009143343392,0.14508916608491465,0.1421702688241884,0.13597647360929732,0.12674940093985973,0.11631280788343813,0.10611838875277972,0.09583811232947363,0.08423489126061814,0.07027439882432163,0.05318416401775532,0.03259577938902011,0.009364424301735147,-0.014329763288388035,-0.036165526672648954,-0.05436690516052847,-0.06744567271435475,-0.07479771913975142,-0.07795809353011222,-0.0800582776498517,-0.08363028841824577,-0.08921923313449408,-0.09527366350616318,-0.09908297673974778,-0.09880207747930625,-0.09471737090241836,-0.08835184830871218,-0.08103665857175368,-0.07364812018111598,-0.06662718078124875,-0.05984121965521908,-0.053285474399163,-0.04754482215729925,-0.042992420534330125,-0.039232758481538156,-0.035331626998274024,-0.030209664806419945,-0.023298201066779444,-0.014978276944468252,-0.0062248527328744255,0.0017410811556836329,0.007490523130223014,0.010109688701240575,0.010128064968364497,1
-0.014464967036931481,-0.015114758288279713,-0.01507788068217828,-0.014097427064404032,-0.012187213433906226,-0.009715597354070214,-0.007788348361956967,-0.007863969007993831,-0.010725495768782291,-0.016113707979437817,-0.023148422161020397,-0.03096142627736694,-0.038732733260667875,-0.04498976225532859,-0.04731828127125837,-0.04322924870715855,-0.03163371869089657,-0.013806347618441215,0.006985834752322321,0.026843545258164243,0.042359834002790864,0.05111040674995866,0.05204779783107005,0.04582161657077037,0.03435756060215312,0.019607007957042556,0.002775901031574616,-0.015247563672938974,-0.033217575707360225,-0.04930095760359329,-0.061556062297666164,-0.0690408702023678,-0.07240913435635472,-0.07330701353796867,-0.07315790116077454,-0.07198708343294409,-0.06827327411629552,-0.060963686611088606,-0.05283394517684096,-0.052531465157386215,-0.07283340192694392,-0.12377979745675145,-0.2023850254215282,-0.28506935875530953,-0.32821132676865056,-0.27825931066710663,-0.0920217966009776,0.2363927699844123,0.6546035024256065,1.0535032631749126,1.3008124791669866,1.2975942611212368,1.0288425811290116,0.5763127231635283,0.08190587890138223,-0.31796234511205523,-0.5478441655284852,-0.6100905817940483,-0.56081922663405,-0.4664874184139852,-0.37109710889233993,-0.2898888376223272,-0.2223662729100535,-0.16669674978262441,-0.12403756525629789,-0.09527586134273308,-0.07842414960328264,-0.06938490439414075,-0.06403123519004215,-0.05950175300812309,-0.05406143705593173,-0.04696569223939993,-0.03887080781488892,-0.03152733912955008,-0.026530246770477786,-0.024203328744193578,-0.02379941366878998,-0.024235016719805616,-0.024218104512460197,-0.02293463718391798,-0.021125288502466012,-0.020597535297629147,-0.022498271593241817,-0.02636752068923002,-0.03065215251676618,-0.033800295687504034,-0.03520105022242193,-0.03540893472563935,-0.035358319099086405,-0.035536374996106485,-0.03600299856787121,-0.036885528421249265,-0.03863076588364497,-0.041461021546396415,-0.04437680412199487,-0.04547126036171727,-0.043800141202485945,-0.040195550343152565,-0.03607375318347776,-0.03222378375819483,-0.028593488376812817,-0.024443416048531973,-0.01872300266160897,-0.010915155031704447,-0.0015446028915336845,0.00845158581236236,0.01866835254224721,0.02948346937370764,0.041540666706364256,0.05498465161657276,0.06931783546583489,0.08383434699055936,0.09796716398981456,0.11133371572622955,0.12337433086669095,0.13315045172638582,0.13998086323193676,0.14422553396822685,0.14691472203234637,0.1485610019608459,0.14885164706123605,0.14721810209443942,0.1431047142798711,0.13605604409549238,0.12592662543907554,0.11268340058146425,0.09625103521778344,0.07712628992322515,0.056630041484318716,0.03614950825230206,0.016566152726593238,-0.0017832228657390994,-0.01906272006995837,-0.035434926890226245,-0.050444258796268765,-0.06328663379111887,-0.0734362597454846,-0.08076238732617948,-0.08542643646570663,-0.08795369600055643,-0.08917621614501559,-0.08979345109795568,-0.09025509665570407,-0.09100171666515021,-0.09206829527981544,-0.09284224464788389,-0.09275391989198964,-0.09161808457875928,-0.08918993477085133,-0.0847897863023869,-0.07786882491372615,-0.06899640564451177,-0.05951799823473004,-0.05036461830063549,-0.04171306396626465,-0.03335648309468441,-0.025062788865612674,-0.016861197882886737,-0.009320059668982736,-0.003441683752600358,0.00015724484435824387,0.001986886485466688,1
-0.0018682388059212995,-0.005640157217858405,-0.009046987969958868,-0.010879365325460898,-0.01064007295488524,-0.008811788514772035,-0.007056366140208999,-0.007295705239852859,-0.010508987831383921,-0.01648492079055351,-0.02418545123783139,-0.03213176738664452,-0.0385617347500946,-0.04160085574479513,-0.0396357214333746,-0.03151933000739835,-0.017031094658807967,0.002029387727669194,0.02151830388437565,0.03622019296711007,0.04204389669179434,0.03818314546365363,0.027456796593696535,0.014248335216739377,0.0018017986114721362,-0.00919713463750172,-0.019927973255065706,-0.03152928919426279,-0.04370533553535978,-0.05504440312955116,-0.06462511220100668,-0.07281489915897804,-0.08030433488415836,-0.08686768147207527,-0.09110781892809974,-0.09078574623794133,-0.08412969001294901,-0.07333168086404439,-0.06810550078083712,-0.083992072551128,-0.13323825367685532,-0.2130505120439154,-0.2989301143534982,-0.3471075886782637,-0.305324155211237,-0.13047934632315872,0.18798523726478816,0.6060844151528271,1.0212463733289527,1.3009059182719567,1.338147598494401,1.1054350230973997,0.6730754147097439,0.17834653591869243,-0.23811076118842994,-0.4912360236585801,-0.5737552130094129,-0.5360461223996519,-0.44450162420357336,-0.34725725885177744,-0.26442434069230203,-0.19886755478586135,-0.14959913109731784,-0.11594246554342438,-0.09578129069151703,-0.0849124652768252,-0.07838580719174015,-0.07228636942261531,-0.06513852772256784,-0.057804511860912164,-0.051963291606231254,-0.048546641989552886,-0.04719909911297967,-0.04686640612508014,-0.046415574104770096,-0.04481624364228686,-0.041569020480508645,-0.03708376425739729,-0.03238237894061785,-0.02881004115724749,-0.027904801505195913,-0.0303209858471217,-0.034503947527634915,-0.03759864476697693,-0.03808556701707118,-0.03672981260277354,-0.0352234330532764,-0.034839514345861376,-0.0358265552669059,-0.03708669018919566,-0.037090702048245106,-0.03576026789395258,-0.03458345824528364,-0.034920584131712284,-0.03700195928597947,-0.03997589574251946,-0.04250847367042622,-0.043595002038796946,-0.04277781685226408,-0.040128806843244984,-0.036215919854503675,-0.03139205316301964,-0.02524348954788186,-0.017216694707226324,-0.007306775047381085,0.004140940836552483,0.01681072940139896,0.03065342238778663,0.04576799629441303,0.061670850843892,0.07718659551255871,0.09142231895640295,0.10412909531936845,0.1150184399131639,0.12378938051017863,0.1308253137975589,0.13672468666152643,0.14160714098725916,0.14554592493981192,0.14838872999962902,0.14904861936243594,0.14637585071390066,0.14036149836127151,0.13162329987709898,0.12028487182680281,0.10603280864108577,0.08905284978728159,0.0702312608497249,0.05056545451617555,0.031008268688244075,0.012240425166410485,-0.005977149726242938,-0.024235577459284802,-0.04198161808332919,-0.05741555519740145,-0.06884469592267245,-0.07591278585990605,-0.07960924483515192,-0.08118361306647862,-0.08166835628749564,-0.08204926834438132,-0.08270447904139586,-0.08321412977509424,-0.0832060670159369,-0.08246219557467152,-0.08031915111393885,-0.07598669071255759,-0.0695414507677184,-0.06226485900882146,-0.055834206737721714,-0.051229477745192015,-0.04839022167625215,-0.04641224287955869,-0.04417368371770303,-0.04117380432081053,-0.03744994273966791,-0.03300314489292301,-0.027852510792834923,-0.022132617791138717,-0.016084699382452966,-0.010236605517827124,-0.005147350863313322,1
-0.00627158072509145,-0.005840302840379862,-0.006943689656318056,-0.008646943046822305,-0.01023467566225355,-0.011684899202515564,-0.013660890732619183,-0.017065209171078767,-0.02205959075959439,-0.02770124383711306,-0.0328504377013607,-0.036812602081626525,-0.039336770707947805,-0.04061761814605799,-0.04015443473395464,-0.035445841999761904,-0.02339333400804646,-0.003404241679285899,0.020800998610895384,0.042273229575879215,0.054673628135206896,0.05583684237217763,0.04783319521996793,0.03453961403787739,0.019653108705399533,0.0055465196263382935,-0.007295029936224326,-0.019453849706293574,-0.031076354102685715,-0.04143851904269829,-0.04979715253913786,-0.0561780208196732,-0.0613772001147949,-0.06661350840198516,-0.07236602697013086,-0.07667601402432775,-0.07558915837335942,-0.06696463824887915,-0.05525292152956607,-0.05270897632236007,-0.07424373854226923,-0.1280988490825855,-0.20638727966785758,-0.2790795734597315,-0.2966404658479443,-0.2051065859074479,0.029213977105028936,0.3933019812024636,0.8118100603884201,1.1592888505132264,1.3068148527295385,1.18379579841353,0.8179288886323438,0.3256702019857872,-0.14225945777534915,-0.4682721209120204,-0.6115718327936593,-0.6067059012616117,-0.5243495967430369,-0.4259528408401432,-0.34111481260686893,-0.2725500072477921,-0.21374518093230757,-0.161722352360127,-0.11831262384184536,-0.0858204136329554,-0.06436373198233077,-0.05175990952903806,-0.04444302891359337,-0.03902690168988388,-0.03363173088651205,-0.028042346387540593,-0.023138874895918753,-0.020119417198296338,-0.019444040943796176,-0.020243340582927316,-0.021126754727824038,-0.021365452431315143,-0.020835620071385622,-0.01949197186099485,-0.017692993335046724,-0.016540150352975447,-0.017207829549316992,-0.019702356147078014,-0.022543033380449135,-0.024215727249826513,-0.024607849324763773,-0.02470982880104078,-0.025605369902743067,-0.027758715800322017,-0.030584196658666248,-0.03300611397529874,-0.03479487198825425,-0.03684004176625044,-0.039868640982059826,-0.04308962410076286,-0.04460520395971219,-0.04336624918086438,-0.03994624076562781,-0.035409850574792415,-0.030633578748473014,-0.026558952505258762,-0.023541888768084752,-0.02045388675702893,-0.01547288777962255,-0.007435936462917401,0.0038831182702635976,0.01800495775990063,0.033879609608928635,0.05010649292008138,0.06525060648433537,0.07822714985065336,0.08870252366840345,0.09736141949311242,0.10580302652775427,0.11556353038238455,0.1267730017615786,0.13799910072291216,0.14724509779354303,0.15278779835103276,0.15367992276896114,0.15017993680645927,0.14365339166081562,0.1356068684237999,0.1267118692590643,0.11696367500742297,0.10614621378492782,0.09352777500204132,0.0779964688558842,0.0591708933983256,0.037979502414176,0.016131029145748328,-0.004967830397836933,-0.024939170706271403,-0.04379663219284978,-0.060844114148165936,-0.07492158232883239,-0.08538175116987655,-0.09208835337042483,-0.0950667619339922,-0.09501246940901528,-0.09355931010267775,-0.09238722193383743,-0.09207406352269518,-0.09181285356470976,-0.09042606951640651,-0.08736147318051907,-0.08248253102092774,-0.0758714294365702,-0.06813860802047975,-0.06025249327301306,-0.05311385402604825,-0.04730224552088859,-0.0428151718482538,-0.03916992913680517,-0.03576480359625974,-0.03187015038941089,-0.026765492281928618,-0.020583418874953602,-0.014546772000017697,-0.009574993155800758,-0.005382978265737026,1
-0.003064661230399805,-0.006307281723757374,-0.009072816885783893,-0.009908225794351886,-0.009073586142162924,-0.008191394564034562,-0.009216536550003554,-0.013237972753765778,-0.019769931690240522,-0.0275721368861228,-0.03582678844853082,-0.04380902003317144,-0.049768596200924,-0.05101447187535238,-0.045468749585150875,-0.032781901701108396,-0.014130450803745169,0.007953046717223473,0.029434307887312133,0.04565930566407785,0.053372447398706536,0.052161495732529393,0.04398852985246023,0.031530181513236624,0.01703721086238684,0.0021364724130908067,-0.012398443406098641,-0.026778546470037412,-0.041281560821540816,-0.055466590238007395,-0.06843484018555697,-0.0789841830772358,-0.08592463426421161,-0.08915107001832684,-0.0896172416542264,-0.08734356162573498,-0.08070360843114774,-0.06982074004016815,-0.06130774052666496,-0.06859879449506985,-0.1050037228913781,-0.1727679380017137,-0.2546774194677628,-0.31242732571374304,-0.2937178388831528,-0.14936126802542657,0.14108197875815862,0.5438785932115398,0.9631683017003453,1.2657718323428409,1.3354973194145363,1.1305641519779621,0.7092859029333141,0.2050043732419123,-0.2360937680568418,-0.5170421896423276,-0.6190303193226439,-0.5874267496559064,-0.49105880587176876,-0.38429971510431055,-0.29228250490980523,-0.2187880087477782,-0.16147391298044195,-0.1194387928076771,-0.0916957966963263,-0.07474346691749822,-0.06390258564704523,-0.056210232221887875,-0.05126583108429901,-0.049483652102696306,-0.049986499671633565,-0.05042811428161145,-0.048386700272881236,-0.04256581432266028,-0.03342369995041549,-0.023156902579791167,-0.014804565409537753,-0.010896779212123566,-0.01220180452309159,-0.017354264154429793,-0.024038006087324974,-0.03058353081927657,-0.03589446723369019,-0.038525102047643145,-0.03729410703978123,-0.03255825956360625,-0.02605705584787161,-0.0199139553262085,-0.016084125205921826,-0.015850269688981698,-0.01919602735060636,-0.025166253394902128,-0.03278832038855378,-0.04099286594211262,-0.048192638741457905,-0.05273412449906174,-0.05374646729872788,-0.05156295232231193,-0.04709418150882891,-0.04077787211425074,-0.032797979505689696,-0.024044746563315927,-0.01582438010830057,-0.008651395735193053,-0.0018507266244734734,0.005970633140031649,0.01606505444735532,0.028527906620629675,0.042290476739281144,0.05600821490782226,0.0685929930920605,0.07953402275827799,0.08895840132180012,0.09721884400730929,0.10481270485143261,0.1121479466078971,0.11860072479118837,0.12283396692489518,0.12455980178802839,0.12487040296607678,0.12472678858372101,0.12409228478914698,0.12263102923687118,0.12017504387042181,0.11593523484858168,0.10815400547226439,0.09540062824609435,0.07785774366872837,0.05692094050524263,0.03427845704939668,0.011737128831658072,-0.008819118113153116,-0.025789436976673318,-0.03874929661783104,-0.04899535574941767,-0.058307234726571164,-0.06726759484592414,-0.07521372252604816,-0.08144568944656752,-0.0859020428696397,-0.0887129216366085,-0.0898118009595602,-0.08887446367139591,-0.08528936771458402,-0.07878260327963149,-0.07001298587341352,-0.06043174208209655,-0.052041315562778946,-0.04645657575453155,-0.043577260371431475,-0.04180305544793968,-0.039214231947308845,-0.034490936707531894,-0.027703849701516188,-0.020236235279546714,-0.013813449519591178,-0.009492753201590046,-0.006929815576975418,-0.005049994038437465,-0.003410250585290285,-0.0019016963184950728,0.00011672126038409815,1
0.015094753784517833,0.01939823995277408,0.015471730084548056,0.004242698817150788,-0.009013575118607483,-0.017783022526471102,-0.01856432539773545,-0.013052246070187288,-0.006987566063171277,-0.006187057130966547,-0.012366928983285588,-0.022520052873256476,-0.031712330720552025,-0.0359635653243853,-0.03349700255745749,-0.024469054280985742,-0.010423696899885279,0.005651287283306359,0.019800784450776213,0.028484526444150067,0.029756179298619033,0.024218349701527447,0.01536323711281808,0.007889390064190479,0.004694209745163206,0.00480628416355515,0.0039030299836712943,-0.0025480020700322345,-0.016016277132628973,-0.03378890643556407,-0.049809478217109494,-0.0574464323037091,-0.05397566784870589,-0.04296188904315476,-0.03119172143853398,-0.023337022028152788,-0.019874130553963747,-0.019457048862466447,-0.023199586507192334,-0.03711965656506138,-0.06952497251189513,-0.12333168944451711,-0.18734169183370322,-0.23204365008626024,-0.21402731713076384,-0.09042514909779861,0.15868065630097516,0.5073133304136733,0.8738428006961018,1.139531681769441,1.1970150252719518,1.0048038237476242,0.6127680845561533,0.14139884564122182,-0.2736224691444733,-0.5400506288910366,-0.6385935598654018,-0.6111124937792903,-0.5220068358637446,-0.42173099212771725,-0.3329359158178917,-0.25814477620198895,-0.19445900986791348,-0.14198892943316027,-0.10296495325493413,-0.07777653760876158,-0.06358518597928844,-0.05555574670234296,-0.04901377147419203,-0.04156998062993688,-0.033477335447586645,-0.025747564468001666,-0.018835614327723297,-0.013263850526566489,-0.010175429373487668,-0.010287305710030517,-0.012583245497683564,-0.015107559669964597,-0.017094918330416965,-0.019639711373524212,-0.024366617189472133,-0.031310435797848514,-0.037744783580035815,-0.03974288133230063,-0.03562912988230437,-0.027736180049676047,-0.020652870710749116,-0.018147928138303637,-0.021248577525990582,-0.027931654567533305,-0.034558027711789195,-0.03870786736342241,-0.041079339942725474,-0.044159511983871885,-0.04900172493207134,-0.05370792298966122,-0.055079883497647815,-0.05157688423887182,-0.04485619453485072,-0.03859247859627027,-0.03514218633997646,-0.03280157252701765,-0.026922138776533037,-0.01435295783925438,0.003357317611791661,0.021077571047363734,0.03432475794394857,0.04320940972960594,0.052442700255869085,0.06673243992523772,0.08619841455251162,0.10641672424959343,0.12234939158400981,0.1324035340040548,0.13923395897245394,0.1464875425049902,0.15491191914810487,0.1618539826981364,0.16398117184218453,0.15991193351715982,0.1506985980739353,0.13890768170795328,0.12712362293017632,0.11635046898621212,0.10590674649957776,0.09476581235515334,0.08236585628607955,0.06862749167905824,0.05355945641134355,0.03648758791930309,0.016264009495636587,-0.007199816124901868,-0.032016619922878554,-0.05497374629711775,-0.07312916175801107,-0.08533192425184286,-0.09227613528713634,-0.09546879484947844,-0.09673097201457523,-0.09785598990336403,-0.09985293839811,-0.10225033235441917,-0.10315916873356966,-0.10087100007575518,-0.09528146097646686,-0.087322558022409,-0.07831479782000339,-0.06999846622060386,-0.06351649463484775,-0.05819377361882074,-0.05220479984631587,-0.04448775234039395,-0.03569419873777222,-0.027335672281332393,-0.020574959055600868,-0.016093778891878314,-0.014253571010125018,-0.014720348628644008,-0.01588565507201868,-0.014793411983187335,-0.00882184328685004,0.0019680325421268987,1
0.00930804924649599,0.010822391423246994,0.009635627916305303,0.005329872340682867,-0.001076721779974588,-0.008106168064468292,-0.014527534234084849,-0.01940216581618151,-0.02245729613296628,-0.02438170317663798,-0.02611462795832385,-0.02780713155246518,-0.02860895220312183,-0.02726204938619228,-0.02269455972929523,-0.014503758778182723,-0.0035505977510541737,0.008373727145540046,0.019842016338504877,0.029950379179512106,0.037497654322615176,0.04114234485724683,0.03979556918071126,0.032478432582410496,0.01914449460103647,0.0016342647531152775,-0.017280959377211094,-0.03512569756836848,-0.04980181906777474,-0.060004444747037367,-0.06590412048238013,-0.06889058448442903,-0.07086750170265677,-0.07359455581319495,-0.07764674782703095,-0.0812496479732113,-0.0808870651334972,-0.07440277810554291,-0.06427327304056302,-0.05932468296531159,-0.07330970819613294,-0.11781457449296205,-0.19136302422640297,-0.27101667302375365,-0.3123533010230136,-0.260918248457374,-0.07402612646858774,0.25290416759654666,0.6667005498852717,1.0586461885662282,1.2980970565369754,1.2882515567412862,1.015353113562231,0.5605951205233057,0.06407527885526496,-0.33898475255034743,-0.572254063573649,-0.6352605239825438,-0.5813999680826584,-0.4772533810564743,-0.37001772428952234,-0.27895968529437587,-0.20661380498832485,-0.15172291547908534,-0.11316897011020248,-0.08893981909961857,-0.07550984124549559,-0.0683015549188287,-0.06309543772923318,-0.05735306472327401,-0.05040398131504443,-0.04300038103140657,-0.03636499597038073,-0.031093986764508863,-0.02719457876714509,-0.024726114659203373,-0.02377256852805469,-0.024192777378300605,-0.025287618883035077,-0.025479739217029906,-0.023549289180253133,-0.020580521079626702,-0.01930362384083322,-0.021285136120905695,-0.025744609263562007,-0.030753046968126224,-0.03464343220410465,-0.036647046289105326,-0.03673808676340809,-0.035096474599726826,-0.032333525122957896,-0.029872554336281363,-0.02896391134986999,-0.029608668187900387,-0.03106302217817576,-0.03277194076436002,-0.03430820204054137,-0.034759545281827293,-0.03294582701702205,-0.028671577500628147,-0.022918876836067588,-0.016515885702613392,-0.009694849723244395,-0.002630116243772051,0.004631025273628004,0.012591398609106626,0.02219935387837476,0.03404670532966853,0.04778486086819224,0.06250495628608775,0.07722947577339985,0.09096201792060042,0.10288440962784848,0.1126291610882999,0.12016160095297526,0.1255268029758198,0.1288237587759852,0.13036776757772803,0.13068928925021261,0.130354412325696,0.12994707397609462,0.12978128241202558,0.1291883045929117,0.12616941856247738,0.11789102925824373,0.10222387953909517,0.07969842236842466,0.05408879390380052,0.030539791943086092,0.012674002398756448,0.0010420899355183776,-0.006806073594268252,-0.015164582063478493,-0.027740547071097205,-0.045218930798351875,-0.06509592029985238,-0.08337245476320511,-0.09629215323659977,-0.10175794088023557,-0.10002234504049114,-0.09334549659282888,-0.08515221369999675,-0.0784671659364253,-0.07434126277820692,-0.07218995554036647,-0.07095045681842957,-0.06919693498408147,-0.06540423243021322,-0.0589533813333397,-0.05073965274379875,-0.042716820474280416,-0.036443461940618656,-0.03212682764082403,-0.02923240821199894,-0.02709365459972698,-0.02469382668643638,-0.02100903326082594,-0.015687967563001448,-0.008945538110066069,-0.0013891521299187505,0.005868768710248542,0.011457020984443093,1
0.07731749323396983,0.0668092011084507,0.017252996890452718,-0.05968884431326923,-0.1398664924064131,-0.20164607514128197,-0.2371810152154145,-0.25207361614721757,-0.25321533345242747,-0.23620743557342694,-0.18520604913511682,-0.08575298192942997,0.058399455035577766,0.2167620505941718,0.3431510250550091,0.4029511256317151,0.3962211957254279,0.3590732385682233,0.3418339559351077,0.3774394240087672,0.4614307742225255,0.5576684402403428,0.6246821210954582,0.6428460097389755,0.6233749195747466,0.5931124941585532,0.5651892448133295,0.5172527831325178,0.39642897747538214,0.1513269286398832,-0.22998133098901627,-0.704305117269003,-1.1943447212853249,-1.633387458504766,-2.000238221655304,-2.314518724827953,-2.5937456184371874,-2.810237274309034,-2.889701358177023,-2.7581272953737095,-2.401587541149482,-1.888778634618983,-1.3334850672056804,-0.8254180258831804,-0.38597581442843176,0.018237990557040173,0.4222701372770969,0.8178116041828725,1.1519436694319325,1.3681518336266665,1.4533319446340371,1.4486137001768609,1.4149493579278518,1.3862210637165537,1.350974211133142,1.2747471727327304,1.1396288551555311,0.9662058003649144,0.8012668767903792,0.6843684619140625,0.6225933129747654,0.5925910454905273,0.5642270801700158,0.5257650101294624,0.4923794766984262,0.49058190118925654,0.5300684544552005,0.5884063829812355,0.621673093939339,0.5893661270007305,0.4754138201420807,0.2956956466720663,0.08983883263731318,-0.09739448857784708,-0.23383294016466358,-0.30843151204406705,-0.3292195579351847,-0.31368909321649374,-0.2780370175284216,-0.2310018432444175,-0.17290923497624452,-0.09894052663470643,-0.00627037485836926,0.09773161645811801,0.19208639224923313,0.24875467363480935,0.24724902697345155,0.18720463297255227,0.08928308329691403,-0.015743437083524284,-0.10073273468228058,-0.15012273591149622,-0.16126192694528466,-0.14288872551328602,-0.1125147912655927,-0.09145349683541694,-0.09704615027471639,-0.1346599880287454,-0.19385241834116762,-0.2525147664147982,-0.28861469273278223,-0.2930334989717725,-0.27454355770132943,-0.2532844183297326,-0.2484739396050028,-0.2695286871062263,-0.3147722465693642,-0.37521814604653553,-0.437248941673436,-0.4802724143123979,-0.47289102145325296,-0.37641938693854005,-0.1625616434009165,0.159132354106071,0.5232841335616806,0.8207937576371993,0.9422420574425223,0.83012432735471,0.5099501038595093,0.0813984678288263,-0.3271289659133884,-0.6148219755324568,-0.7439798029277278,-0.7386354458461,-0.6549754898820817,-0.5472855287972128,-0.4484447778965758,-0.368929474326794,-0.3058051279625459,-0.2511947181125538,-0.19703032627033173,-0.1383192051538459,-0.07553956346298649,-0.014089853277548164,0.03941154871521699,0.0811291991155946,0.1116511752806325,0.134258228876314,0.1514432507432863,0.16343771443683153,0.16945368756419987,0.1689082122530638,0.16217638638029827,0.15166028409665278,0.14145132065589117,0.1351597238393364,0.13436310133506715,0.13814359490126119,0.14325201663498832,0.14586289254023263,0.14384089565810942,0.1372595448490904,0.12717079852287128,0.11400600896104188,0.09730730406735817,0.07748090152795392,0.057355804438742074,0.04112364086440184,0.03181661982494839,0.029408800244026437,0.03027212753134923,0.02922291591819606,1
-0.027063504581037356,-0.02750158853327164,-0.026000510465064193,-0.02243655569123054,-0.017544875335966662,-0.013266948122171099,-0.012140076924227285,-0.015734544778259505,-0.023269433731878352,-0.03193210088759881,-0.03881112019033099,-0.04281771580722242,-0.044629836567496084,-0.04499776778002038,-0.04375859748935071,-0.039927077330841006,-0.031981870711105,-0.018641303781445497,-0.0002533609589791515,0.02018895966174608,0.037651812710237736,0.04751344090372147,0.04830872699733883,0.04217427401364794,0.03237962015519046,0.020820109305047862,0.007513907402653017,-0.008425672953292164,-0.02694017009866065,-0.04592495400987849,-0.062199945001872606,-0.07331829820126258,-0.07879778652884027,-0.0798223482342316,-0.07749364105638469,-0.07167862312710527,-0.06195351150430534,-0.05026000279820938,-0.043397560532137724,-0.05274916456200379,-0.08979496528096777,-0.15770240137760536,-0.24207751752921688,-0.30710817361928056,-0.30151067500241696,-0.17472328466698903,0.09830134457825536,0.4912252672214118,0.9155625476214003,1.2408681916701454,1.3458079566372467,1.1769648092484881,0.7803669946364935,0.28309077084682455,-0.16647871219309207,-0.46456763158583847,-0.5867613188034899,-0.576260131040685,-0.5014748067529821,-0.4155336222878995,-0.3406522495795571,-0.27686551153957717,-0.2185558724346787,-0.16446583476711557,-0.1183418141098565,-0.08441880030860412,-0.06354770722034826,-0.053117345990877717,-0.04901694898694909,-0.04722338342616931,-0.04503577452865793,-0.0417013837866083,-0.03765759872354817,-0.033527875447400414,-0.02982160051754119,-0.026633427273350968,-0.02386552141711392,-0.02207304179743763,-0.02207944557104107,-0.023894693859728193,-0.02685427329403841,-0.03026728105757969,-0.03337636824092,-0.03530825033735652,-0.03581448901693904,-0.035843777141870106,-0.03663740134795614,-0.038308553287666317,-0.040002514168518744,-0.041224135412650326,-0.0421340277648376,-0.042752515523176396,-0.04271574946270348,-0.041787703171740354,-0.04006940440564753,-0.03801555727677661,-0.036535978407124886,-0.03623991857643728,-0.03665450180677672,-0.036786347838942676,-0.03556417733260414,-0.03172078029697883,-0.0244913418158214,-0.014337555976939817,-0.002544022056451836,0.009647830030886451,0.021524567039541184,0.03304448369956216,0.04469447926122329,0.05682171209665065,0.06946480114001698,0.08284586622334576,0.09688400214318149,0.11046429473815797,0.1219901934334609,0.13041944115920487,0.1357186506218273,0.13843754253663454,0.13896320926574282,0.1374292735863652,0.134250481710621,0.13043664260850682,0.12713182955283991,0.1247431957289637,0.1222651953085417,0.11738725737153172,0.10790357527132016,0.09305522139204438,0.07333373138680851,0.05022963709328983,0.02638695664928911,0.004458448149049405,-0.014386075674534857,-0.03044092626387938,-0.044422377642127836,-0.05666681813556346,-0.0673592870564232,-0.07699942649636447,-0.08577786678744523,-0.09282147241543343,-0.09694332347874512,-0.09800365734469241,-0.09677557813915663,-0.0937556807961931,-0.0891052009023052,-0.08351000317914707,-0.07821324579258468,-0.07409475350656171,-0.07086291848757534,-0.06738871092939261,-0.06279864102475498,-0.056926385704256594,-0.05006483254589127,-0.04260356675092115,-0.035004957229432025,-0.02801230564762929,-0.022070211732445513,-0.016925757322370005,-0.012673381653290275,-0.009903910860943638,-0.00810025908002346,-0.005718846659159362,1
-0.0003459316658178188,-0.0019482908863324312,-0.0036363736776610623,-0.005165876969816121,-0.006689812901595075,-0.00885460195230738,-0.012485189919375302,-0.017643502573438528,-0.023302519979522273,-0.028421566318946982,-0.03283951854050418,-0.037152719723601076,-0.041980313913607605,-0.04644224965583693,-0.04758577713688076,-0.04238953909901938,-0.029845484995642137,-0.011169346391499892,0.010387655062382817,0.029888187230918767,0.04269272664961159,0.0468907285009097,0.04345173585546669,0.03456725772249075,0.022534235325456294,0.009355986418502972,-0.00376490203317385,-0.016716857710025592,-0.03014962811805723,-0.044538023969423045,-0.059096894236310614,-0.07199130909603463,-0.08184980690607266,-0.08826893292491798,-0.0909351993213548,-0.08902481222838197,-0.08155189850125893,-0.06962425057651533,-0.06014708607770063,-0.06630948788569038,-0.1018279137817485,-0.17126847951825136,-0.2608309011565525,-0.33496034108335215,-0.3426708015742379,-0.23312861162274368,0.022015560964460584,0.40482113944222375,0.837620336190543,1.1955356875060181,1.351473849379913,1.23631848757707,0.8781209832238017,0.3925767023933001,-0.07182060420367195,-0.4007057538561471,-0.5540058545683809,-0.5622457501761339,-0.49029550977625785,-0.39631956639581667,-0.3108445483575502,-0.24079144439598074,-0.18411235786484237,-0.13950514441379208,-0.10730050003913351,-0.0865610652398992,-0.07397472852305494,-0.0654921336298423,-0.058328692109105226,-0.05175333890129197,-0.04639688173085495,-0.04261699982504847,-0.0398171210259733,-0.03744705208348803,-0.03548601534718572,-0.03376146128259205,-0.031976357323355104,-0.03019517526080357,-0.02869638001518891,-0.027771285851862965,-0.027744813185008523,-0.028693065399918657,-0.03014214790469455,-0.031473793876892635,-0.03232020203675695,-0.032485544396602395,-0.03208923111773699,-0.03155667121381575,-0.0312411312183287,-0.03140296028874123,-0.032460097807277544,-0.034745978473383315,-0.037829754341824506,-0.04061982490631735,-0.042303457616171505,-0.04277040388328534,-0.04232730467133421,-0.04117393907697086,-0.03919761699317167,-0.03645362191740001,-0.03339755752261392,-0.030455210200756398,-0.02763926590773826,-0.02439927235282982,-0.01980329570019209,-0.013202981719022067,-0.004585190987639711,0.00578507108720531,0.01752574580161971,0.029894980933928693,0.041601148669406604,0.05115167210754751,0.05801563991132214,0.06323525114412099,0.06868064630730417,0.0761515902813196,0.08681576901062299,0.10067905004235121,0.11629431399918642,0.13104951169520762,0.1420908993886374,0.1476178341251466,0.1477418238443479,0.1438527804721282,0.13702729625065624,0.12754458674652144,0.11578703692030354,0.10247776669243368,0.0878369616110149,0.07146717484789233,0.05323005959115572,0.03371951813935939,0.013998792994320348,-0.004568424346808146,-0.020471609346277026,-0.03280176409029907,-0.041731726256698035,-0.048195607254783224,-0.05340312393916341,-0.05824524072330836,-0.06282652445472504,-0.06675554941274718,-0.0697267798295865,-0.0713946201788285,-0.07125048119326406,-0.06927667475529858,-0.06597086678227956,-0.06178429119197086,-0.057374540834193896,-0.05365130055475034,-0.050998478452124664,-0.049134382621373915,-0.04766599100396134,-0.046159865172905885,-0.04381613845728667,-0.03987580413845302,-0.034624081138024225,-0.029053489336980317,-0.023620794483520842,-0.018453091429020782,-0.013995188277677284,-0.010618540436720999,1
-0.003017759649208458,-0.004504734450870146,-0.005796792246835592,-0.007032183694351843,-0.008813151992428603,-0.012124722866747366,-0.01751707516598076,-0.02437687007350499,-0.031227432024659448,-0.03670511285473726,-0.040502306294872475,-0.043412199749739644,-0.04589372291597937,-0.04649473719654903,-0.04220567710321632,-0.030717625218359277,-0.01241015285143279,0.00942078429300082,0.029957310684240325,0.045177840977612044,0.05332049479879502,0.05438971881404638,0.049186194952388206,0.03897409774768652,0.02533654459237272,0.00981150899522664,-0.006340814440933937,-0.02195687915962473,-0.036132297083050394,-0.0484021165443127,-0.05815198738491182,-0.06469292689212199,-0.06840025024556781,-0.07065732911103971,-0.07199843141482035,-0.07081518540363865,-0.06474613279200997,-0.054288932947296524,-0.04583872023797566,-0.051303951364350335,-0.08316007099890474,-0.14540215409732685,-0.22410190018257686,-0.2841942131250747,-0.27590795465267404,-0.15051185208076573,0.11519519266805076,0.4928084786721791,0.8926616242147805,1.186599927241001,1.2600715172080226,1.068460922613881,0.6644010552346586,0.17634852655330635,-0.2513461603063171,-0.5217502266262573,-0.6165642803600548,-0.582780677105811,-0.4909178407960155,-0.3949142007652678,-0.3162572652264209,-0.2533582364580032,-0.19906723374326624,-0.15051423066503458,-0.10913659618468424,-0.07698015332944907,-0.05439906752583336,-0.040031540076460904,-0.03153931153630965,-0.026564748291509906,-0.023706413970237518,-0.0222702738533785,-0.02140749031245825,-0.020303338424511763,-0.018563752381113796,-0.016172388308847607,-0.013726383385666513,-0.012174109765829973,-0.011848531677353948,-0.012363010924315429,-0.013424776393137824,-0.015222022200441259,-0.017891158720450977,-0.02085452227934316,-0.023054710368794112,-0.02372835089409827,-0.02303196427844168,-0.02202224529574843,-0.021715399835828306,-0.022561240450972672,-0.02473583324429602,-0.028112430045247917,-0.032123838143696154,-0.0358484505321802,-0.038101712301909715,-0.03790842363834547,-0.03521709142331393,-0.03108113625408063,-0.027136057639094595,-0.024696281185412186,-0.0237658244326883,-0.022901445444960075,-0.020548110574525352,-0.016106950748736314,-0.009495744626719396,-0.00067814418113949,0.010201159040790494,0.022733683550857503,0.0360814906165387,0.04913310628268695,0.06121974650660527,0.07240536385352074,0.08313946802825638,0.0935896433984939,0.1032026657028296,0.11125375479356578,0.11766387329157187,0.12282374417796406,0.12676938804201973,0.12904074535557708,0.12932471020626338,0.12787614191798707,0.1252322786343367,0.12162286965257921,0.11686521314671906,0.11045234583960763,0.10149710340145061,0.08942751344198487,0.07454637370336237,0.057188852966834264,0.03746105573602854,0.01629585497804944,-0.0046485843697208346,-0.024192758357236437,-0.04176797059565092,-0.056806402347371644,-0.06858083127474449,-0.07664752452066095,-0.08162013815946967,-0.08514007791733498,-0.08860156619465345,-0.09196222284146469,-0.09377256571895437,-0.09251058854064134,-0.08810971190003454,-0.08194755389267615,-0.07546533803339238,-0.06931195086926593,-0.0636693519802708,-0.05883363453333402,-0.055100202466608926,-0.05212817786449475,-0.049077167393872696,-0.04543456398204722,-0.04094008770965378,-0.03505586004275221,-0.02756290790131491,-0.019473708437413566,-0.012540683527789689,-0.0077669697225113375,-0.004778968712573099,-0.002636225006403219,1
-0.05935496240334774,-0.06773811190396062,-0.07281946403982176,-0.07400557537399853,-0.07139658143726935,-0.06604210066911098,-0.05896625761888534,-0.05036091537339076,-0.039679434698094665,-0.026180829453739077,-0.010208606666282297,0.006067825564312113,0.019902573568951816,0.029831955155580025,0.036516219773398154,0.04201439707416892,0.04774569023711264,0.05313194959338063,0.05669657266198412,0.0577948210066712,0.056391187301630646,0.052262234678938875,0.045154981454709586,0.0345720470115374,0.019378783514104207,-0.0009084977145934331,-0.024227990394774638,-0.04634953906704964,-0.06290448117395242,-0.07058754596907803,-0.06780422229541717,-0.05543681790221789,-0.036924709172086984,-0.017082359365951434,0.00016165513967706302,0.01340594911797974,0.02282748463545155,0.02701306053780721,0.020435492980021876,-0.005145093960921933,-0.055313594485618255,-0.12669470783744033,-0.20208658768732407,-0.2489503717631666,-0.22412014310657158,-0.08731338069276975,0.17691534341209353,0.5369479534489154,0.9068885727424867,1.1667605777935623,1.2098011981676597,0.9964134927091133,0.58090501406296,0.09019188295713843,-0.33517242763456195,-0.6025652578173664,-0.6957045697320563,-0.659602896210605,-0.5609123440957978,-0.4520893224512719,-0.35737276788855943,-0.2793920056808776,-0.2125239196923646,-0.1516056172056362,-0.09416191022210682,-0.04049926598995645,0.005592518463353364,0.03773819338974896,0.051113191609491404,0.04745939975417167,0.03655033224804593,0.03147320431709409,0.040042403270886914,0.05819203917295141,0.0716434078740184,0.06666390381367102,0.041475405328637194,0.008711635918869785,-0.013494193993977692,-0.01580645069865586,-0.0056675910431685655,-0.0015611377237102321,-0.018439862317211963,-0.05675548806162092,-0.1036382024362219,-0.14353734600849055,-0.16862010379324882,-0.18145615406237223,-0.18922835673073288,-0.19537634522572883,-0.1959443461359937,-0.1825982894097884,-0.14927192095752229,-0.09798173134634197,-0.03958764809799499,0.011177455580004218,0.04249916076320236,0.05050710770006244,0.04071496921935539,0.024585800619032316,0.012626473973190548,0.008685011435573455,0.009334372429549296,0.007802157459879949,-0.00033258638247775363,-0.012966772066096196,-0.02227206676214405,-0.019905122087641076,-0.002393840515167795,0.02685435570171394,0.060081951632188796,0.0904869864812845,0.11647759938978103,0.14114750416567684,0.16718082659664935,0.1925023657881123,0.2107803534044391,0.215571910288919,0.20524586461287572,0.18562748812069102,0.16696517035277156,0.15662372808966615,0.15412431626315998,0.15265839029932088,0.14509038475868644,0.12918993073198035,0.10827436728361572,0.08768104143638654,0.07015208987147958,0.05363276230661544,0.03348280598663576,0.0068751539698285735,-0.024615727679176438,-0.05558537058579702,-0.07999088455302969,-0.09470834112795898,-0.10082819006942893,-0.10291224728114295,-0.10682777883680147,-0.11615859076307465,-0.12973568410562358,-0.14281659281643466,-0.15050568134859021,-0.15080841541907,-0.14590962680322972,-0.14101976090963367,-0.14103109485219473,-0.1462483988510187,-0.15058503148255747,-0.14536114583870643,-0.12635001796639925,-0.09769049851546652,-0.06909117104402437,-0.048760326595226756,-0.037765301281639865,-0.03033990559445735,-0.019520593571342348,-0.0030667768760819537,0.014718583582553273,0.02670774339066701,0.02953247384416834,0.027175447993391003,1
0.0029851478146771986,-0.0014408485774662634,-0.0044287243935961585,-0.008790124362668326,-0.017802096561302733,-0.03210848018351502,-0.04764810471548605,-0.05695256205085121,-0.05402218375517258,-0.03841217456123734,-0.015181107119330423,0.007427238249768395,0.020672466672816536,0.018349745415967966,-0.0004474966046203047,-0.029802715365357592,-0.057951632402630286,-0.07136961193834444,-0.06061016748417299,-0.0254259096936357,0.023157993605992366,0.06578304758748268,0.08348333334554661,0.06849149408855817,0.029309839778387543,-0.014574444437469265,-0.04471509131056469,-0.054132383591428405,-0.049427253873153894,-0.04357864926461378,-0.04585290359079312,-0.0571045244638271,-0.07258738713580803,-0.08805360840783423,-0.10283856180234781,-0.11730741731597455,-0.12870186134696185,-0.1315993732565081,-0.12448650769629739,-0.11671445623610163,-0.12715855716747385,-0.17156267930951158,-0.24646036330781115,-0.32216185954201987,-0.3503760353783123,-0.2817899760946036,-0.08519941768486491,0.2355047930919484,0.6282592217090565,0.9937163317671,1.2124569673310577,1.1943183174072813,0.925137587283091,0.48167183866272245,0.0012984945542421772,-0.3796185488907816,-0.5831729406039349,-0.6102014286401907,-0.5182454392134914,-0.37943532851923417,-0.24698578464184195,-0.14564989498945052,-0.0800451206547959,-0.0451389540586449,-0.031050195419584602,-0.024318477795795483,-0.010750583781936267,0.01861423858392448,0.06238793487258044,0.10919449888648572,0.14381756410884802,0.1551880648248392,0.1414767307226143,0.11009986275694637,0.07310725764129339,0.040530773075931295,0.01604087354648847,-0.0025686670982005624,-0.019146763715859987,-0.03442325825395169,-0.04488089722861176,-0.04637252695317769,-0.03909945489546004,-0.029550322858451505,-0.026846105169522374,-0.036075170660411944,-0.05488312221965234,-0.07591314741429833,-0.09213906905839044,-0.10104682094211054,-0.10542173692550878,-0.11098254885215814,-0.12300661716630117,-0.14337987059674934,-0.1692342963089911,-0.1946158606452265,-0.21340047863275924,-0.22079582403904796,-0.21424457289392912,-0.19453142253208755,-0.16542353677587018,-0.13138956337536356,-0.09581538325169425,-0.06089367864852007,-0.027676247276166945,0.0039009099183474755,0.034278308590697346,0.0636057078864519,0.09173221967328547,0.11865520086747543,0.14469075830443173,0.16969923578821267,0.19228814523067578,0.2101944603298228,0.22173267761644647,0.22688048683255405,0.22704757691610603,0.22438220344185314,0.22112504996704446,0.21872344908793417,0.21705079235620656,0.21425610135819972,0.2076284742050887,0.19501238611183921,0.17556924385152928,0.15004464710702933,0.12058881622892959,0.08955848082111613,0.058632519656786806,0.028858042590459924,0.000759145983063092,-0.025362587171621487,-0.04918160400964712,-0.07048431076796458,-0.08909990242450438,-0.10460915328151354,-0.11652133452076054,-0.12497333285368523,-0.13100461368039668,-0.13592471592776237,-0.14036338557629344,-0.14401882124505375,-0.1464242450850478,-0.14737656907017851,-0.14633779846711614,-0.14241258838601575,-0.13536445062565639,-0.12597616488562519,-0.11525199067812701,-0.10364052823363518,-0.09105334852570368,-0.07743517012090867,-0.06339150192423648,-0.05025209945420735,-0.03951144931540054,-0.032109823493509757,-0.027398694046856187,-0.022935170792367215,-0.016426603878268848,-0.007550164921726152,0.002740848819760361,0.013580339097730543,1
-0.01881403938585732,-0.023287616106405937,-0.021652664696326287,-0.017021979625045265,-0.013617497104424437,-0.01411632061891178,-0.018373207962551368,-0.024082294887050933,-0.028856424208676318,-0.032115774088791064,-0.03501468805198566,-0.03842874849821721,-0.041435285616594916,-0.041584826599692315,-0.03613071544590064,-0.02383343444877968,-0.006281618870223375,0.012766782331706314,0.02935748276174461,0.04100798766913922,0.04713708910986577,0.04833284976723136,0.045249518668598686,0.037930039840006397,0.026271752757635606,0.011038046467577792,-0.006076790647897329,-0.023115265913214562,-0.03821449178041851,-0.04993348481686316,-0.05770347864223517,-0.06169704130991634,-0.06268007405758455,-0.06221127508371828,-0.06162811226001593,-0.06039492465864414,-0.056543056206971136,-0.049062213580737216,-0.04071777809422472,-0.04023238410291525,-0.06070823438646143,-0.112121064987098,-0.190822175332522,-0.27203374728938223,-0.31076600581050257,-0.2537031901670627,-0.06088862467722532,0.26832026284794874,0.6762807930871855,1.0509611928461295,1.2627090665556864,1.2224752830334458,0.9292979930637086,0.4755269111025126,0.003304684342127301,-0.36169177887356874,-0.5597682077527322,-0.6052090537923404,-0.5563388384244445,-0.4733443862102599,-0.3912987506545552,-0.31882617831303106,-0.2527271378303962,-0.19116797503793603,-0.136855510543972,-0.09400824150566123,-0.06497659020373987,-0.04861060684325297,-0.04099135822963498,-0.03764912385851855,-0.03519577761478127,-0.03188962485906044,-0.027588181384520592,-0.0229996004979149,-0.01882356583587761,-0.015605688484448016,-0.013795004441763058,-0.013517529794174716,-0.014587260785015361,-0.01650951387065526,-0.018248851820162684,-0.018846346857147374,-0.018347447462596214,-0.017491751718252097,-0.016935910702039782,-0.017178835498416797,-0.018647038355366945,-0.02147824737023979,-0.025529969143020616,-0.030329827826084184,-0.03470669063160922,-0.03728754194205002,-0.037671199928845336,-0.036610228864229065,-0.03510434159593687,-0.03368416266660819,-0.03252337396672044,-0.03181601627988237,-0.03163495096541338,-0.03157106069735421,-0.030910752471800133,-0.028747392373283033,-0.02401533029949625,-0.0163713084502095,-0.006582340676158361,0.004536354639785509,0.016681324017048346,0.02934550018253125,0.041733460651126375,0.05378779683587835,0.06644988035996251,0.08046364166678771,0.09509349879637881,0.10855833189096294,0.11991033362401238,0.1295919428328518,0.13809008427178163,0.14505711477608985,0.14961046793356989,0.15101487833862615,0.1494121813049895,0.14595453949982862,0.14193121339477263,0.1374803474341524,0.13123938499997553,0.12159524231102121,0.10777610546529935,0.08963358454278333,0.06764386342315426,0.04334359330551191,0.018851782266794816,-0.004020743604769724,-0.024047474101421846,-0.04044869539292704,-0.05306831582962884,-0.06299188654918655,-0.07216597786190608,-0.0817047854870851,-0.0912230256103082,-0.09968531399658326,-0.10594022856042912,-0.10909366839380129,-0.10925761714148742,-0.10729964248326404,-0.10373968414850404,-0.09871756412985651,-0.09274682742005794,-0.08666518980635826,-0.08104010803643857,-0.07588340522824548,-0.07058835869008485,-0.06416540849081191,-0.056034304541132576,-0.04659515820047348,-0.03687697378297218,-0.02803675956657116,-0.021102501742267153,-0.016331475711028064,-0.012735260352862463,-0.008916597909334065,-0.004362901970942763,0.0005335060616169611,1
-0.002790477455551034,-0.005618874790382045,-0.008026577646014166,-0.010175446928610873,-0.013136054675584695,-0.017369032297151765,-0.022240202007247314,-0.027382137088021955,-0.0333209383586517,-0.04021976968598212,-0.046845675532606774,-0.050667529467596895,-0.04846182088171183,-0.03790391477106096,-0.019624986646752354,0.0023263674317754468,0.02217787428699887,0.0354776000475483,0.04145070456188577,0.04222315322840852,0.04007750595518348,0.03593198480814247,0.029521073966600676,0.02003534803320341,0.006945849416593907,-0.009063315335664396,-0.02624482687744874,-0.04293833736230164,-0.05768983315744749,-0.06890911947843624,-0.07585520525844358,-0.07935848923881554,-0.08110760996159003,-0.08243569297475896,-0.08318373437219313,-0.08173442283362285,-0.07641479127985233,-0.06780074589321419,-0.06205563495982045,-0.07195964606069745,-0.11115397873930229,-0.18356899325831075,-0.2746098987190563,-0.34903314985922484,-0.35719679078653327,-0.24929725922972107,0.003576860434706234,0.38557095279984893,0.8213812252119013,1.1878832551262375,1.3582009112625737,1.2605830719318067,0.9180701148168946,0.44151929070483364,-0.022852461033294948,-0.3594702411895322,-0.5244256879918543,-0.5439314707682176,-0.4803394798420487,-0.39194225129234606,-0.31060266294529015,-0.24401116039510154,-0.19005996674656533,-0.14679654585070565,-0.11387125515497837,-0.09097262585898558,-0.0768856229797686,-0.06938978437954438,-0.06570364352612344,-0.06319160148013636,-0.06015747388268931,-0.056183683695735856,-0.05143078686851346,-0.04592902064146377,-0.03995192223992968,-0.03448819606785958,-0.03081554800484225,-0.02955798584428264,-0.030230175229851608,-0.031776404042081936,-0.033264441696128216,-0.03416065858947358,-0.03440264413502637,-0.034040161749412726,-0.03294955546167141,-0.031367391630453614,-0.030295467074211893,-0.030882794732186747,-0.033329042288626834,-0.036673916805494845,-0.039863494399291766,-0.04237893408888048,-0.043894413045741786,-0.044200008330638044,-0.043469779192586724,-0.04235624839610323,-0.041458544155916585,-0.040660462882509456,-0.039592805533262394,-0.03831067306944612,-0.03693649448362516,-0.035051097833686144,-0.03179151669405822,-0.02667688822967853,-0.020056326137665642,-0.012380855465518927,-0.0035297058349157244,0.006813005062110975,0.018534484787663973,0.03097820696156314,0.04370995960029777,0.057398638596338966,0.07301217855420973,0.09019550980828014,0.10716923873509476,0.1218566364288568,0.13286348981945398,0.14012514642643562,0.14477666014282042,0.14799636992202403,0.15031408405540006,0.151741135084407,0.15166941455826566,0.1491486504882336,0.14372332840770755,0.13538343794612123,0.12392121273910561,0.10895184206287438,0.09038387077714766,0.06890324722674634,0.04603880387795992,0.02357804333895443,0.0029774704332140925,-0.015023247647352592,-0.03056930178570271,-0.04418398101302111,-0.05596870654598973,-0.06562995285377102,-0.07317797294220572,-0.07900042217860447,-0.08326148760579628,-0.08575600357865387,-0.08616408192924398,-0.08429648315160712,-0.08064426941118377,-0.07645228192928714,-0.07296719627898586,-0.07073963944457043,-0.06927224035425433,-0.06756373498831808,-0.06528029797777288,-0.06285385068079366,-0.06046750044578271,-0.05742866145649188,-0.052881484240026394,-0.047186278432297016,-0.041758152987973245,-0.037466826878065206,-0.03416479560619871,-0.031452648141393015,-0.029006933797887227,-0.02624625367035049,1
-0.000809598863413679,-0.0021603040764513934,-0.005433716614263663,-0.011607430718123537,-0.01989860060823226,-0.02836671084580133,-0.03551439904897879,-0.040688817907425935,-0.043795405964389585,-0.04523456142283666,-0.04524704143889035,-0.04273727433660449,-0.035560347980557676,-0.02276234030156907,-0.0061945129357425565,0.010297094703145892,0.023189812448743866,0.031239440208020358,0.035591364879708334,0.037946641701644676,0.038510570110041956,0.035801779014361663,0.028198284897264253,0.01536362872566866,-0.0014001444182462968,-0.019684658026435285,-0.036881817922886945,-0.050839708421847735,-0.06026998938189792,-0.06545817755266697,-0.06852930832897702,-0.07192047925248782,-0.07629632576407147,-0.08029705324849742,-0.08176665489132649,-0.07872162478859317,-0.0704922593700044,-0.06052881764929162,-0.05923258266066092,-0.08175791124455901,-0.1385419650365145,-0.2239009976334379,-0.3104788215691808,-0.3525151127559481,-0.29744122380974847,-0.10521314149134707,0.22768041112846377,0.648923309067059,1.0508174324261472,1.3021644364524847,1.3046774280587572,1.0438373770445486,0.6009481747639833,0.1163267260673268,-0.2754724366108992,-0.5006498023946794,-0.5623547756279398,-0.5158864121855857,-0.42597883280408155,-0.33572580261816237,-0.26082130437360396,-0.20130512685257568,-0.1545998016236671,-0.12008622723586908,-0.09711752808384369,-0.08313572907971645,-0.07429604740647225,-0.06715824221239541,-0.059886680692461315,-0.05229778086206848,-0.04527930496588471,-0.04008896398941447,-0.0373873134351028,-0.03656890489710706,-0.03609976845714407,-0.03447441395637302,-0.031223065448549966,-0.02728935081359775,-0.024103039657688535,-0.02237367186507543,-0.02216268010769916,-0.023456320627035163,-0.025941855813243618,-0.02877382791611521,-0.031114551608305625,-0.03268158299343913,-0.03351077177218211,-0.03366274106154646,-0.033642032884986704,-0.034391393022922975,-0.03649676908791612,-0.039961602074545924,-0.04429691659441519,-0.04825694918982718,-0.050312455271943,-0.049826486875571736,-0.04752577748480552,-0.04471563946153552,-0.04189979797266049,-0.0387281879607941,-0.03546142258598981,-0.033239117165434845,-0.03234181404010285,-0.03105921809669359,-0.026976992951238572,-0.0189243714084966,-0.007218910570822034,0.007180432199330594,0.023185504825169755,0.03980270389869245,0.05614518231815818,0.07139031369111706,0.08523530144409248,0.09819525445513451,0.11090283606230839,0.12340677909892193,0.13526438073808628,0.14573507635195493,0.15409473086588876,0.15993302641091006,0.16276516077183148,0.16210143115707232,0.15819158952484524,0.15184666040583464,0.14362432004889583,0.13348202143713944,0.12085040490843516,0.10509044580686694,0.08622686221890918,0.06512805221562101,0.04285230599449469,0.01996772682275356,-0.003121307633528962,-0.025180719065662306,-0.044359474149838346,-0.05942181022051838,-0.0701269099315246,-0.07690514092599543,-0.08066552281882922,-0.08279938999443598,-0.08492591314062413,-0.08792510085267567,-0.09127934554554638,-0.09360379156837847,-0.0936468058015501,-0.0909298457065762,-0.08590305274641725,-0.07977497649173029,-0.07400895320442177,-0.0696104079776407,-0.06665357387341643,-0.06447342659885273,-0.062198900856985546,-0.05912139543271313,-0.05492836173426977,-0.04970785341534632,-0.04373747224650903,-0.037156447774693874,-0.029949562606559843,-0.0225433007946686,-0.015828867639178575,-0.010375719966684306,1
