0.11771071683958478,0.0781252924137451,0.036849745116861954,0.015282024638988784,0.02103885315831909,0.04718780619000858,0.07802582232475723,0.0971844672057161,0.09514395627360266,0.07297177045307823,0.04117437625180976,0.014750833778707588,0.005835397719160171,0.017738633221862227,0.04380743574984112,0.07095503882281988,0.0862488946495638,0.08298573013676805,0.06249325136719079,0.03160610677245021,-0.0019648274148825165,-0.03327112925209683,-0.059707266990017334,-0.07761809020053283,-0.08166962340513875,-0.06975131434495899,-0.04796387606044811,-0.028832674051262934,-0.023281024599225347,-0.03307334031155197,-0.05002115905142002,-0.06299549949322443,-0.06712011910487517,-0.06730981647106507,-0.07305431017311513,-0.08833567616652122,-0.10465489999364119,-0.1041574922730974,-0.07276140349942957,-0.013504000293238647,0.051655396478497324,0.09414102614126761,0.09656192896681003,0.06500978783578798,0.029867234288233003,0.03315846869105321,0.10590470777615751,0.2467983782491637,0.41507499029492306,0.5432554025982574,0.5660014740298083,0.4527908471744278,0.2261854656382309,-0.04614737675350912,-0.28145571394558655,-0.4185311859041614,-0.44165963436973166,-0.37871844010346606,-0.27780132326175877,-0.18041780110873457,-0.1070365165978682,-0.05888077596197335,-0.029353102933631074,-0.014081270498190608,-0.012553014508838915,-0.02386759329324689,-0.04349951393791049,-0.06378908505415198,-0.07646268513764475,-0.07584882861941604,-0.06168744147495305,-0.03907654426192324,-0.01552898013315144,0.002336269168379446,0.011540963986365112,0.015206962383917576,0.02277615108769303,0.04500784994290934,0.08541407557585887,0.13426919201046486,0.17080102013673745,0.17454505385510288,0.13892198946590284,0.07597942174888815,0.008656174472948721,-0.041711373152609865,-0.06389165339727546,-0.059085048884465294,-0.03733726217554796,-0.010130268831962054,0.014291811559115483,0.03033486245965727,0.03451822895080078,0.027290634214020098,0.013703541852768633,0.0008447490064246712,-0.006340423239340283,-0.00768313717536495,-0.0069797113477197935,-0.008452543170468988,-0.013330854011257574,-0.019574350095241166,-0.025056857558336164,-0.03140144195793852,-0.04452424185009136,-0.07004664710440013,-0.10660055029165932,-0.14298293853893929,-0.16370445433096673,-0.1609677104541573,-0.14264260277837978,-0.12723163703088633,-0.12913587744672647,-0.14626906360100494,-0.16009199973570207,-0.14893815294997376,-0.10523427585333472,-0.04283853410760038,0.012575501488739742,0.041763084771172486,0.04289559798758419,0.028827175400235376,0.015913668030498873,0.013188729615497483,0.018503932222844043,0.022769666572830027,0.01853165254984488,0.006555440739045813,-0.004304337933168168,-0.0029330518335046445,0.016240608006789354,0.04822284717644227,0.08044724446502932,0.10158798584054402,0.10766552474914755,0.10157279220049509,0.08870630369933435,0.07304853126913359,0.05639219093414095,0.04112780588239476,0.034014046229971374,0.04566878853495718,0.08374294689537655,0.14470028423728362,0.211604069839447,0.26125196219581304,0.2767255244422812,0.2564491692287487,0.21304617756629232,0.1633554149194365,0.11786112009269581,0.07703415941560521,0.0355527439524313,-0.009704295827213029,-0.054306755210231025,-0.08858676463020096,-0.10518798521639429,-0.1044885845346963,-0.09479314270506285,-0.08853340659154275,-0.09570254204530526,-0.11764914872179219,0
-0.05792058985376296,-0.020630196127655938,0.008121510786997209,0.013376808223273485,-0.006077917541455942,-0.036735770227230374,-0.05826675773205402,-0.055944999224674524,-0.02974573900318374,0.005630689632625407,0.02926557507096194,0.025938544922982983,-0.005348247966476254,-0.05100206626453142,-0.09038177681652877,-0.10690484879277228,-0.09635511076487682,-0.06704412558936769,-0.03151704964240627,0.0027839310472108445,0.03467143782752494,0.06256946164683133,0.07923774187361764,0.07506918995511606,0.0485666291038736,0.013653510009644624,-0.006249582030724317,0.005550618458483296,0.045232780906761326,0.08755775402831037,0.10124169351994503,0.07143941422357278,0.010279331799826928,-0.05330218991358827,-0.09351075194893524,-0.10089628296291078,-0.08201529534649041,-0.05054886348600152,-0.019377487116672837,0.0012659190132855666,0.002708891522418024,-0.01998857511579484,-0.06231005560947032,-0.10700756939330713,-0.12693584559481727,-0.09302441663734393,0.012548597849736588,0.18062464203987244,0.36846638663610415,0.5113265289973827,0.5474025549160202,0.4452919811709477,0.22300806864649753,-0.0531785841823686,-0.29433420249763564,-0.427759115509905,-0.4284291387070486,-0.32508267784376255,-0.17893028829475024,-0.0507227976158981,0.02454609611711288,0.04454103839944242,0.029085198276088586,0.0030617303248212744,-0.015848804636620833,-0.02109416123843939,-0.01553996082625381,-0.006869175398768716,-0.0021018876878382275,-0.0038578221227462085,-0.009576031611213006,-0.013255354059046473,-0.009458122263675693,0.0021240554063239932,0.015369831918630096,0.021708357398509966,0.016346942512584568,0.0011244662603292037,-0.01791025372809549,-0.03486937884607973,-0.046719805387969944,-0.053374688250341216,-0.056050787620132325,-0.05539463573645644,-0.05101143292181944,-0.042860207603988655,-0.03251658045395039,-0.022380550836626274,-0.014174948412152595,-0.00853998174865744,-0.004816481900069572,-0.000692635475212651,0.0067648502255493355,0.01908181822425474,0.03539096306069639,0.05311616267449741,0.06944900106635024,0.08264526666859756,0.09225016462153895,0.09783032328378076,0.09792420413021147,0.09115441789564055,0.0780987499103578,0.06149995262577111,0.04463354783292322,0.02922613351058536,0.01497244479260825,0.0014037931696822764,-0.010044966725718966,-0.016398422622323897,-0.015874545816266288,-0.010214338196161701,-0.004354250160485395,-0.00399186647879211,-0.012758310210534446,-0.030389358532329616,-0.053040792374244104,-0.07583082753107236,-0.09547874656058171,-0.11047702556300039,-0.1194785119673539,-0.12022866400995284,-0.10995492683653006,-0.08746799138632698,-0.055618648084162836,-0.02122017806331571,0.008147129654341147,0.027921897905968378,0.03850887219307212,0.04462997921364302,0.05212204581176667,0.0635597092589994,0.076148418107948,0.08409998222014661,0.08333647867662568,0.07460996295053746,0.06265186132893939,0.051589196213855146,0.04065897971752682,0.024939134834636365,0.0005359444861106348,-0.030647947786035502,-0.06062289420546531,-0.07991532455328892,-0.08333629600848508,-0.07228991330130331,-0.052479690832047114,-0.029870649707350084,-0.008201235341427918,0.010888848068523155,0.02588314643002988,0.03401884879400646,0.03310509491909564,0.02494820689884408,0.01545954258346942,0.010325935340933196,0.01055882363997133,0.01224634797760487,0.01064607180055157,0.004311238695975561,-0.004720941025095958,-0.01346218433520968,0
-0.09350441471080438,-0.1520180318519481,-0.18998325575086772,-0.1947813630972639,-0.17157653011129065,-0.1363974790770435,-0.10299743558421634,-0.07530885108926513,-0.04900524937588234,-0.01886008429094339,0.014460182133075213,0.044419806970077885,0.06500461579077602,0.07629462795730661,0.08314079820025802,0.089405317329188,0.09608232692854321,0.10465195212200067,0.11856615389718901,0.1386563020379794,0.1566122576814084,0.15581496347478216,0.12388894468471286,0.06736158760616737,0.01280364671123047,-0.010130218453023313,0.007625761409040772,0.04379040190182084,0.05955551275605416,0.03113200285455532,-0.028074145716205978,-0.07518986380466963,-0.07168295259837214,-0.0162255792810859,0.052014511493620186,0.08327374580827908,0.055108503958543484,-0.012137737248579163,-0.07323679076690488,-0.09307906764689206,-0.06969205610688423,-0.02999539248523955,-0.006026184447759484,-0.009747286356277364,-0.022701937475930176,-0.005699355980032244,0.07771140022820494,0.23374895529394032,0.42125615948159195,0.560232355913102,0.567791654155713,0.40568338156083217,0.11249812859211689,-0.20569337562662238,-0.42951477282892847,-0.4926194531807348,-0.41424414989345837,-0.27632947665262003,-0.16435179014756413,-0.11635167470334853,-0.11440686644453411,-0.11579452792091698,-0.09187717018329238,-0.04480568129282976,0.003809864787637446,0.03439401935903633,0.040127612855953745,0.023826653910222862,-0.008510468411530744,-0.0496075623041205,-0.08896775468669636,-0.11335658475385821,-0.11292786736959182,-0.08809704188047351,-0.05032170655145962,-0.0151519325782588,0.007274521592978483,0.016354251583533708,0.01767384034784739,0.017611184186959165,0.02042593670009714,0.027642344959505953,0.03840115520338888,0.04935630831837209,0.05364424902374585,0.042203730566899064,0.009836782846508381,-0.03853147732721255,-0.08804768405397455,-0.12137983708322628,-0.12815309039426528,-0.10990259857672806,-0.07783318363425401,-0.04539064384044004,-0.020219834367550846,-0.0006371655515082317,0.020876901583036796,0.04938472621757259,0.08107899286403185,0.10483588459991748,0.11017941001326154,0.09474079333065692,0.06586906332541544,0.03547862821561824,0.012564162959937925,3.0107899851408368e-05,-0.0027408488781445126,0.0036816760800232433,0.01927032030777622,0.04186927266154848,0.06400031721026744,0.07340689100589352,0.06008119199584009,0.025867523346256582,-0.013024976105536906,-0.03609829229275689,-0.03371788330193441,-0.012934415470144112,0.010953772530062682,0.028421467176679246,0.042758360887087114,0.06412944223407334,0.09657901880427246,0.1302441428021233,0.14606730172461793,0.1297385168989261,0.08460516841952297,0.0336919680651955,0.006943264095077464,0.02098464893883143,0.06701661187077566,0.11593585821807942,0.13565602318039593,0.10949737002676203,0.04678689061402739,-0.020105600920533324,-0.0538530689223643,-0.03691898640165553,0.015678917136934842,0.06802621990097989,0.08903028167900015,0.07043324551872393,0.026975013930592897,-0.01686937298830878,-0.04309318741495685,-0.04948796153976556,-0.04806507442660434,-0.055070402772194015,-0.07934217974001605,-0.11670776391682264,-0.15332654154591688,-0.1739514217109725,-0.1698781031767721,-0.1441046736759775,-0.11112543828716509,-0.08912809542879481,-0.08875283346180005,-0.10702117581583942,-0.13045638557576333,-0.14418189082737434,-0.14015749876390843,-0.11952555759768498,0
0.051933401932723805,0.052879966007448674,0.04875871963021729,0.03946317060058337,0.0263739767623725,0.010118440726745177,-0.00995179954625586,-0.03399656025136485,-0.05910086117312898,-0.07910931772726157,-0.08839176990133772,-0.08577948255497428,-0.07434660782868802,-0.058254076789962334,-0.040821500231486355,-0.025250153547538182,-0.016224330370330258,-0.019797863160459138,-0.039986238961397205,-0.07403452636477684,-0.11175336611423149,-0.140712366787882,-0.15298028768732239,-0.1490328187277509,-0.1363098427190055,-0.12271824421700205,-0.11081910941005356,-0.09841476280914042,-0.08358683821655298,-0.06790379709364566,-0.05523485514856509,-0.04795636539698079,-0.04403634545996796,-0.037920101115963535,-0.024477813903440056,-0.0025236126577120113,0.0247708263361648,0.05211967399968484,0.07415376429016188,0.08613196832251716,0.08493685593152343,0.0710873995770256,0.05012950390314594,0.03253893002422521,0.03275230599715646,0.06626851700917441,0.14390613693824458,0.2637476244586836,0.4025479183926206,0.5145232072169066,0.5461287035397938,0.4625399028784531,0.2703357586882453,0.021564717169015077,-0.20570016341535213,-0.34187266676216654,-0.3579246223010687,-0.27630951147128596,-0.15318763185983333,-0.04496442098277953,0.01809324757753863,0.03746587161933858,0.03293532402253338,0.023511229165222917,0.0170199924020607,0.011879996035693969,0.004458443668286365,-0.00542570959880424,-0.01419513613181107,-0.018433165402098828,-0.018360140010476533,-0.01696069693308009,-0.016461899377691804,-0.016388081774709674,-0.014288661244594983,-0.008101857592172471,0.0009772234137868773,0.007500030616251272,0.004751401579738067,-0.009777078718992794,-0.031240330129474605,-0.050171095994624645,-0.0594233629321584,-0.05988447928210417,-0.06010215899093281,-0.06926347257331679,-0.08854094424897554,-0.10818119006222256,-0.11378175565947198,-0.09704189463596781,-0.06225061635084096,-0.024209916882299794,0.0005324123023834979,0.0033676082442702527,-0.012231623702095414,-0.03369995085263745,-0.0467428406889459,-0.04327512905286562,-0.025287859089052806,-0.0029788371257704555,0.010986444052992638,0.008819722539267333,-0.007519914320887198,-0.027721405854822117,-0.03986478497414117,-0.03765268600306203,-0.022843427553319987,-0.0019078873772272586,0.019124446509915377,0.037857272395079605,0.05553414685939,0.07429495022953227,0.09378077445218526,0.10997054447951661,0.11716216982316349,0.11140708149636983,0.09332984679164877,0.06808235057274917,0.04196740998742134,0.01974044032182836,0.00489817646381502,-0.00023698525646506478,0.0035039212559184463,0.010613170612457343,0.012512051130667605,0.00252935075589836,-0.018347759153047285,-0.040131446270485795,-0.04961012953031379,-0.03899617616101515,-0.011202294035492373,0.021496877275103257,0.04516098412724899,0.05250738014249998,0.04511943026091364,0.02998431920947391,0.014767809253914658,0.003713693972095731,-0.004254555705803061,-0.012975531550545915,-0.024198386085642898,-0.035750299594443376,-0.043938170271461366,-0.046934238671831184,-0.04630238928334646,-0.045920927170723415,-0.0489626365438815,-0.05502402727670084,-0.0600023836316122,-0.059024609370799154,-0.04977631679951548,-0.033908003873598914,-0.016228289846591606,-0.0024115029032969458,0.003547168579954403,0.0015561232195232051,-0.0036460301153519643,-0.005332035667043651,7.779056921728734e-05,0.011008564846663887,0.022776084049412466,0.030888099568390726,0
-0.0019360556750015953,0.006088005181235847,0.012098539884249249,0.017449073201844693,0.023002891319082352,0.029310812141196158,0.0369288560358995,0.046093796313058884,0.05622668369562899,0.06543729528695404,0.070548602118217,0.0687477437997635,0.059162568733967955,0.042136584174708905,0.018539000369866134,-0.008576456866929254,-0.03281383128293915,-0.04664419939790091,-0.04540291407016024,-0.03031802379990396,-0.008748107830912849,0.009177801232646072,0.015745137172298876,0.00984623132214348,-0.00196051512771576,-0.009477291614720083,-0.006685155523790846,0.00289825075611451,0.008640559597316199,0.0015028936290049462,-0.018025601702242912,-0.03955959951990011,-0.050222147013880586,-0.04331229686059422,-0.0224233104563368,0.0011993377541218188,0.016952137187485117,0.022227057162039626,0.02222599347110818,0.02271823232157682,0.022547605214436335,0.014105219004282769,-0.007842923870683962,-0.037665577549961596,-0.05734174639162307,-0.04233123675921592,0.027264380790751302,0.15410742252822962,0.3151659400554127,0.4635415407098447,0.5431653370447246,0.5113878961537748,0.3595534205105757,0.1214918071730462,-0.13607504388346275,-0.3392185960947944,-0.43656094925336497,-0.4166682437574247,-0.3064124354070414,-0.15599631945792372,-0.018679024923093732,0.06697289415834537,0.08632021593875736,0.049015763436945574,-0.018049536068902437,-0.08371589331539378,-0.12637578995486667,-0.14149817037343448,-0.13867002100304088,-0.13095024158328245,-0.12500346880467544,-0.11836138009284121,-0.10448107733872755,-0.08135358416903866,-0.05548993780880751,-0.03750964169839203,-0.03480969959201556,-0.047334155859207624,-0.06758976449953841,-0.08444398981518207,-0.08914541919293192,-0.07990033154857072,-0.06207410567293714,-0.044189496764403466,-0.032458835459614664,-0.02759294571758597,-0.025806389505103312,-0.02264213285309428,-0.016383508467409505,-0.008399390906246106,-0.0008120256693951722,0.0055977546596251045,0.010853534508013445,0.013587164408380498,0.011307953989880382,0.004178801702433944,-0.0024441679327542216,-0.00037864028903363336,0.016115824565489226,0.04635712349609829,0.08323109710949235,0.1173148900649171,0.14208413326212804,0.1561805501528616,0.1613429528801418,0.15863389942636485,0.14749945871858902,0.12851768683919546,0.10605933674579869,0.08734251788968565,0.0778049200325287,0.07681156382894187,0.07826975450206711,0.07548985227669246,0.06567482747717224,0.05085791943008225,0.03531057004818411,0.022066247716058234,0.01153773752836565,0.0028066268172974203,-0.0041138306930212885,-0.007686209333046663,-0.0071848492492811444,-0.005824694536980472,-0.011286917477054008,-0.03174920788732291,-0.06884699159857689,-0.1127318597490793,-0.14477094205340793,-0.1485228272985796,-0.12147652959451131,-0.07751663518282637,-0.03791654053783092,-0.01797162441390586,-0.01874699536022341,-0.02934659856683585,-0.03686135176053313,-0.034933062121157155,-0.025327593380163944,-0.013727573519738955,-0.004219458387291706,0.0024890481274696644,0.006808270121229803,0.008299561510749795,0.006101264482944687,0.00044506223031289503,-0.006580122569603223,-0.011765704841825032,-0.01259035130959861,-0.008770308456679166,-0.0018776292281785952,0.006059732700925042,0.012920098176136173,0.01676756319840237,0.016739159453185156,0.013173977370074178,0.007268978290084886,0.0011300263787661189,-0.0028253216346480385,-0.0033919023341701703,-0.0012059483436372238,0.0022897431716458272,0
0.08759930512427154,0.08955922924942153,0.08778677736130912,0.0827322368481438,0.07797309284766146,0.07807284148858386,0.08488113675501686,0.09451851314897537,0.0979899458753995,0.08611907114622083,0.05540321596674455,0.01115614814068435,-0.03388323446468592,-0.06560374177230624,-0.07568214237193899,-0.06475611866976227,-0.04013148908884688,-0.010640021276244834,0.017405585350954024,0.0409826925161414,0.058809035899321814,0.06914977584020954,0.06852493529955349,0.0536335357784152,0.02547054688221974,-0.009251424111479403,-0.04116173071482816,-0.06324925918278243,-0.07444109377171532,-0.07911363857566302,-0.08283288241644628,-0.08803503975675722,-0.09296867470363936,-0.09357706601045546,-0.0865256684565514,-0.07209837372742851,-0.054615025780039475,-0.039417607639358775,-0.02985246008721169,-0.026978616747630545,-0.030808397510287293,-0.041392543518813656,-0.057933886468741626,-0.07476752227718826,-0.07759620514088633,-0.045132819092138794,0.04167739946371536,0.1848053889998496,0.3567213125765494,0.5012951474830929,0.5531125492549481,0.4691944219493978,0.2561245751529614,-0.025989302080559818,-0.2880112991690937,-0.45164664812364397,-0.4826022967003919,-0.39988072806152447,-0.25873058780338853,-0.12005675552173481,-0.024131681799246255,0.019763959762582085,0.02647282170494305,0.019397384519111834,0.017080684156933465,0.026154665833891914,0.0411284596479396,0.05086444472895739,0.04734280817272156,0.030970364197516323,0.010070424134914165,-0.004487741998970656,-0.006004444525800737,0.0038502443741792068,0.01619244532512086,0.021394672648387136,0.015512676889710465,0.0015856529733308915,-0.013134768109407132,-0.021299591468288998,-0.01964273829155283,-0.01100016495131668,-0.0021779415208901223,0.0010582101512567645,-0.00221765414789945,-0.008402871505205502,-0.012885684676241198,-0.013621530994731831,-0.012223489388125645,-0.012688987403167765,-0.019073294738341046,-0.0326599676317952,-0.05017652620432991,-0.06498498179062813,-0.07020723652420123,-0.06155465173677333,-0.03942409237175289,-0.00939463301453703,0.0201317625370224,0.04158945546198331,0.0507867991957881,0.047853787633491414,0.03639711551269241,0.02059347991778506,0.0026721447614338886,-0.0160938424327746,-0.032664264915257646,-0.04200496040225563,-0.039548479194894424,-0.024219877101933143,-0.001059920113053353,0.018830178621917857,0.0233178912866767,0.006735566398899058,-0.025320059524923017,-0.05704485537453164,-0.06980332179439956,-0.05281834456279959,-0.009959765713243633,0.04302609810045725,0.08799147456224705,0.11298822413782654,0.1159422719072517,0.10334046095298906,0.08532770666291158,0.07016830863651868,0.061265352821560246,0.05757989938001749,0.05587334709813113,0.052924752107623575,0.047043399316970824,0.03897709028861241,0.03196573224518132,0.030123489114789896,0.03565893356731505,0.047370176158313945,0.06200906559382556,0.07686222535761326,0.0903226014580676,0.1001934039516534,0.10228583138916907,0.0914982803392777,0.06548694996139345,0.02752290943077159,-0.014448716058431893,-0.05132177195874561,-0.0764157241261316,-0.08748432510246933,-0.08683616334018812,-0.08014282366088214,-0.07400824579931121,-0.07329021315995979,-0.079947394132269,-0.09275426348985612,-0.10699293531371251,-0.11606716309393378,-0.1149788791911038,-0.10248860082700302,-0.08122121422458885,-0.05668247005184459,-0.03500273928315066,-0.019957785066144294,0
