-0.003120893256718948,-0.004307193079110858,-0.003624035759391045,-0.0019481364369212692,-0.00024498339607521,0.0009526536280513628,0.001357087379552905,0.0011452944328701536,0.0012946160541260536,0.0028190873743387285,0.005678923273477001,0.008969976487229154,0.011713539326148319,0.013301378554046865,0.013695037798978769,0.013134252605398668,0.0117477473262777,0.009619600298309522,0.006489981326358581,0.0012896978365361665,-0.006993794857124895,-0.01786001122933418,-0.029285200112261302,-0.03897476605112572,-0.045741960967226235,-0.05018805592687635,-0.0538231164579648,-0.05764679056496341,-0.06184528754196902,-0.06627751020960224,-0.07085125573693164,-0.07557081870493593,-0.08033144801270137,-0.08466131300164967,-0.08785318266028044,-0.08957695283538358,-0.09038379375007455,-0.09202918087104674,-0.09728513825431585,-0.10796901882580612,-0.12180385195334247,-0.130658879547089,-0.12185334291115993,-0.08283296833000474,-0.007667412018935849,0.09899209360129818,0.22430413494665796,0.3537602250584116,0.47469863986833716,0.5728418774778358,0.626975513532226,0.6112842901429376,0.5084855516999585,0.3260526465121162,0.10227565962735632,-0.10550927962701721,-0.24574114173606834,-0.29648608192563025,-0.27289158043151235,-0.21302596307487887,-0.15398395318412136,-0.11574607272929353,-0.09989820525481657,-0.09835264856534755,-0.1025092190516407,-0.10676476061872325,-0.10819705567327298,-0.10615969031444066,-0.10157143476266106,-0.09578680073897979,-0.09038173300110419,-0.08686389543808985,-0.08554172910943673,-0.08542681083028426,-0.08528468951679054,-0.08422168145471035,-0.08166237236614711,-0.0772128785493215,-0.07101017211992798,-0.06428160844028996,-0.05868986104845414,-0.054664645466151233,-0.0509095528761833,-0.04592706116003628,-0.03936490598638611,-0.031532901112645506,-0.0227230582102251,-0.013586010587207894,-0.0050661361383317165,0.002663677452675846,0.010610803357625055,0.020063618467846735,0.03131725566037499,0.04343185107746081,0.05536334430557374,0.06671882147470867,0.07751571269499641,0.08792446468433907,0.0977747775753059,0.10613463957417264,0.11228061235965477,0.11698167264413203,0.12177881194478668,0.12735498828062128,0.1333827750523316,0.13886521214176445,0.14208676903010406,0.14139310031412755,0.13619991695966385,0.12673995757052928,0.11329242316838295,0.09640603997965669,0.0773595480131937,0.05737103598813679,0.03687025108349923,0.016177783226223257,-0.003949731878612597,-0.02259219796971396,-0.03868055813164517,-0.05129412315559218,-0.060710398283580755,-0.06851944324117626,-0.07624023998146097,-0.08397764807348304,-0.09021529279448551,-0.09285197193475493,-0.09082820355049326,-0.08496249422336881,-0.07731916566635672,-0.07005217711048924,-0.06471481405028025,-0.06181211857773883,-0.060589692915667945,-0.05951740315810603,-0.0571812698556686,-0.05309890301820005,-0.04786033800324648,-0.04222900679174972,-0.03629239804828141,-0.029916159104342567,-0.023835209126985314,-0.019314875121866366,-0.016567456252966024,-0.014721822075534102,-0.013018412634420821,-0.010727096168002971,-0.007165695667635289,-0.003028308554903514,-3.950256384863647e-05,0.001337264504571601,0.002275394037007014,0.003891362626617113,0.006575516707418481,0.010277034893358218,0.014244330425725175,0.017139179576691067,0.01816304658168534,0.017583635911707866,0.015865655898236262,0.013010010368466744,0.00913098701523769,0.00509986169564059,0
0.0017717280320882433,8.449866114125406e-05,-0.0008831394487460285,-0.0008097210618464754,0.00013802685317753488,0.0015788116593691162,0.0028368449517824934,0.003242551313867151,0.0025701591473714413,0.0011989948300805558,0.00018835512990760363,0.0005285530784731446,0.00218575540352871,0.004432172653531378,0.00661005683526769,0.008116176315931724,0.008214523022209394,0.006391892794116623,0.0025317493467026187,-0.0034651161472673366,-0.011458674540230829,-0.02033323560848861,-0.02835098671456826,-0.03451713299571432,-0.03920473641606506,-0.043437036010900425,-0.04804866060722419,-0.053500103640360466,-0.0596444022548236,-0.06543381759538369,-0.06965315787166239,-0.07203005270257667,-0.07339845935537932,-0.07515787587248544,-0.07824150254820446,-0.08244785937269386,-0.08735562897772309,-0.09353503834495912,-0.10227225619067432,-0.1141272091590257,-0.12677326065877723,-0.1325554338769311,-0.1188441897102058,-0.07334631649462915,0.009029993946376404,0.12297436802867671,0.2555046915433273,0.3915645135713206,0.5161218374671579,0.6113569207084789,0.654206537688828,0.6202496742743306,0.495829911288418,0.2926331558265617,0.05293717210849703,-0.16262724951640317,-0.3010492885362135,-0.341688373870021,-0.3031966147110898,-0.2284120433494794,-0.15944275432355007,-0.11923016870146176,-0.10811715295960855,-0.11322347599958428,-0.1203542692848934,-0.12056958710425819,-0.11193961136344828,-0.09830509243553406,-0.08566449194792744,-0.07855820523885522,-0.07826086763516975,-0.08289256827039165,-0.08872702968024739,-0.09178934359086695,-0.08955381795690359,-0.08233269813586096,-0.07339245986421321,-0.06711323362005653,-0.06590092197709525,-0.06818571846412225,-0.06933870186018665,-0.06500195926953621,-0.054057091127039776,-0.0389323322319412,-0.02371441814537088,-0.011717628644615743,-0.0040479192089455905,0.00017957324304921675,0.0031078270954812606,0.007320390908036371,0.014370544596132444,0.024172697058718242,0.03596645679304242,0.04889344295147012,0.0618179468072183,0.07357942168146767,0.08379368938358558,0.09320263199868015,0.10280941389887491,0.11260118211255019,0.12121034309151775,0.12694433086481102,0.12925112784734843,0.12921248339132504,0.12891585897969413,0.13014958213629282,0.13297324528011945,0.13536201131628428,0.13421730881637534,0.12687792735217304,0.11246925991040727,0.09239044708435797,0.06927833496178268,0.04532165842545827,0.02204360472648443,0.0011754003182103331,-0.015964958362906134,-0.029724328209772326,-0.04170310819713463,-0.05363866501186679,-0.0662704750599496,-0.07814745621660717,-0.08610238085700016,-0.08779857879697989,-0.08415822063405198,-0.07924584292183412,-0.07726151549313934,-0.0794941379616842,-0.08389882664525052,-0.08667785140115772,-0.08443364695618023,-0.07621799977286572,-0.06423965745047377,-0.05249577861298081,-0.044300975527751994,-0.040517871444289186,-0.03959919635561529,-0.03898309786050221,-0.03679223213384289,-0.032597967510224785,-0.026964433425111466,-0.021029126929801058,-0.01616409780154156,-0.013210884322160736,-0.011913086712893397,-0.010804363583455264,-0.008108061078167942,-0.003530053316014468,0.0012385841454275615,0.003924641337759157,0.003650720502123367,0.001962010380414327,0.0016637554332505477,0.004801309443605734,0.011522629168782345,0.01975600580420083,0.026356349576176406,0.02932911748921368,0.028722164213113452,0.0259574070478956,0.02282500372585343,0.020458495510030334,0
0.00024059466650518796,-0.001825703035532152,-0.0033793646130543882,-0.003467693995398071,-0.0016099575651834618,0.0015345240276281194,0.00449309469432772,0.00599820596615128,0.005936215431014562,0.005197248236460296,0.004266691257300677,0.002745522489010231,0.0005617138652513056,-0.0014140884456687658,-0.0019449294155914742,6.118833664137829e-05,0.00462660749570018,0.009611189363397207,0.01170711237762045,0.008883153362079458,0.0013531719434398686,-0.009200357752491457,-0.02057397185421334,-0.030842342153925274,-0.039223112492153794,-0.04615072601858625,-0.05223060616756787,-0.05756662338939736,-0.06223076276766039,-0.06661571247809724,-0.07111787595556035,-0.0758643751806575,-0.08061901168032844,-0.08473009560717058,-0.08754765756046724,-0.0893763361251112,-0.09188275169859354,-0.0974356494774539,-0.1078461998639594,-0.12246960973783244,-0.13627163683942925,-0.13956135570327205,-0.12039870160161477,-0.06928803454096522,0.01614388129343868,0.12977087862432332,0.2600306318191947,0.39432509747683964,0.5194406848280648,0.6174555840139073,0.6633890534712282,0.6306292030134051,0.5049116714427406,0.29952612610262636,0.05871489182412591,-0.15688329607899554,-0.2960116051305046,-0.33959457491259737,-0.3063432348158069,-0.2373843137684275,-0.1718168769840862,-0.13028456547618641,-0.11372189717829531,-0.11230785807530184,-0.11539337261248893,-0.11629950317659754,-0.11269200898496061,-0.10574210559175765,-0.0983987774817276,-0.09282428421742389,-0.08913295650076358,-0.08635576183830417,-0.0838165688203026,-0.0814253402338859,-0.07918120902732242,-0.076610338498005,-0.0727812709709327,-0.06715058830901585,-0.0602654160340957,-0.05337093086653824,-0.04745822696002816,-0.042784294880618474,-0.03925763282954434,-0.036766896123067334,-0.03466539214636561,-0.031669211912988895,-0.026816457638473443,-0.019911673840217664,-0.010965557971417463,-7.726207113990281e-05,0.012173009336035833,0.02501084433172053,0.03809469957170281,0.05155732752092394,0.06551243505568571,0.07940692307789007,0.09180744995213398,0.10131798699914588,0.1079513363745735,0.11316711986365367,0.11853081334936319,0.12467791894980362,0.13121112785280148,0.13709584764510344,0.14125327878148772,0.14286101289943792,0.14127964662901363,0.13603559740584253,0.12691096460423892,0.11430145672634391,0.09925701025954428,0.08246334633952285,0.06361257619961154,0.042260395738802345,0.01915808115918815,-0.0032721855628679297,-0.022134124870098047,-0.036052109010008146,-0.045936851812822865,-0.053933122653999827,-0.061817557322844885,-0.07021455256126685,-0.07864058400852678,-0.08582991999958428,-0.09031359241566947,-0.09122111002600669,-0.08884203758739752,-0.08426416411942908,-0.0785781227385268,-0.07283931682436967,-0.06805709281064426,-0.06450688491610235,-0.06155730527726408,-0.05829448634290974,-0.054281913150081754,-0.05011135396357005,-0.046827099563810655,-0.04441612222106646,-0.04142239496737541,-0.036160146620728854,-0.028004570958564554,-0.01805605853167399,-0.008952344525557342,-0.0032144771062582542,-0.0011911548032142085,-0.0008459902922157893,0.0004454485411121197,0.0038320484060153006,0.00823129621655627,0.011374142747913945,0.011737510403922506,0.009883660348122455,0.008183422283042955,0.008823949182228454,0.012028340336979942,0.01647972370693481,0.020574618271552395,0.022710133451302215,0.02145275248089073,0.016573136664446517,0.010121918237002946,0.005666137705001388,0
-0.0013439101900793394,-0.0014541533794938763,0.0003884327301378785,0.0037344700959263694,0.007718032786182659,0.0115153620504528,0.014009794943567936,0.013923884627411232,0.011117433345340353,0.007117589398100406,0.003980560356568113,0.003315920107643132,0.00569915936115407,0.009968930277647956,0.013793615867694007,0.015258623734104434,0.013437568496074475,0.00793593046187698,-0.0010155259091546441,-0.011877384416892026,-0.022229781655164038,-0.030351849313689318,-0.036076155057213344,-0.040248339093593294,-0.043692007520281316,-0.04698671369569111,-0.05094278164443278,-0.05622576634450128,-0.06273001722024298,-0.06983418826472959,-0.07636351775984329,-0.08081356572227306,-0.08302255904653498,-0.08476429697765725,-0.08777374592130255,-0.09206717672315176,-0.09662018004206167,-0.10101819442183486,-0.10629035427936417,-0.11407704137241781,-0.12379011064355593,-0.12922724454642687,-0.1179304150917709,-0.07568878286455252,0.005538691445951826,0.12206433653570918,0.25993734360098164,0.40167451986038566,0.5306677804213727,0.6286354576225938,0.6716818207995174,0.6344916889556445,0.5045750445608025,0.29724848985554664,0.058159913066921844,-0.15210713178245652,-0.2844742845368482,-0.32327459044703377,-0.28933920043885436,-0.22331959148933894,-0.16217722416143773,-0.1241025858058535,-0.10850144891683575,-0.105701760869648,-0.10628060906774331,-0.10538944023966182,-0.10280600333059442,-0.1002275631564982,-0.09834004940077458,-0.09629223858027174,-0.0930509137406189,-0.08846343165307845,-0.08353360076273347,-0.07986424880297596,-0.0782522966750965,-0.07793568278356112,-0.07756118130451449,-0.07647819805399708,-0.07454693849581746,-0.07124638246858711,-0.0658440998841104,-0.058248195339007394,-0.049209392068704505,-0.039760459188850475,-0.03078701455174724,-0.022990655480352618,-0.01677974428189692,-0.012016707408446434,-0.007693975523427701,-0.002099846032454448,0.006093144124214266,0.016813672544206737,0.028695053263661494,0.04034474686049912,0.05159953977397348,0.06312449258788788,0.07513361034863304,0.0871724545480295,0.09836079197821923,0.10757340454366753,0.11434687277736467,0.11931638007750552,0.12344039041429036,0.12739792831169444,0.13127147221791777,0.13424883413587083,0.1350635399754135,0.13299659927608934,0.12834157831741907,0.12144150464510516,0.11141272785027091,0.09698459437519184,0.07840355158990484,0.0572189844022569,0.03479478539858226,0.012247506838460851,-0.008900243705137614,-0.026991295554878707,-0.041135103512205826,-0.05194494107433003,-0.061245921523153404,-0.07060469978348458,-0.07991588703678927,-0.0871377245239324,-0.08970573227809413,-0.08690634438957304,-0.08071374397229047,-0.07434174064920666,-0.07051097058626363,-0.07017288303489166,-0.07170031810686739,-0.07197753682834272,-0.06884891207075598,-0.06222429255822064,-0.053653472790515105,-0.045555838015508845,-0.03993966450979926,-0.03711238854211216,-0.03558891716573438,-0.03330984635831906,-0.029211760262718364,-0.023718809591231956,-0.017835940222793684,-0.012208374314350574,-0.0070815678468785885,-0.002625158779051631,0.0011777106495927357,0.004724124869445623,0.008304731003050058,0.011872199019467707,0.015367825567970532,0.018282276946018576,0.019589331842139387,0.019006885315236033,0.017288126356347817,0.015180655417031695,0.013069993821241913,0.011503896206233268,0.011350507453968262,0.013009685740210875,0.015685490405609345,0.017931812521906374,0
0.00366990004981764,0.004445228410739044,0.0045715612910154765,0.003787875302353547,0.0028752801781435126,0.0026216333872674745,0.002881877430264967,0.00303520936132039,0.0030314508597703085,0.0033068917651176578,0.004263908944920522,0.006205425890430664,0.009107521507410387,0.012486647096777657,0.015543785219827744,0.01719009821535191,0.016231875909602622,0.01178339348617756,0.003892830092780967,-0.005882051288880482,-0.01521743375824615,-0.022794279919475965,-0.02883840463225189,-0.0339635723293064,-0.038304212548003605,-0.04192943614913822,-0.04530354048162074,-0.049132982978968134,-0.054015224503567646,-0.060120721395170634,-0.067282009662544,-0.07507582067142299,-0.08254298734933047,-0.08855852357358107,-0.09246127024236624,-0.09401113004194174,-0.09380332347987817,-0.09402019748868601,-0.09758598128904253,-0.10604901444218073,-0.11776041804625831,-0.12627731334374123,-0.11994164980155435,-0.08570877471908855,-0.016475812295278496,0.08413874814790882,0.20389550674351842,0.3288431789030182,0.44747055360359367,0.5469744550344368,0.6071982556391394,0.6021850497251011,0.5126287766867532,0.3425378897481058,0.12666235706384318,-0.07988067521074355,-0.22528436990683162,-0.284687802866186,-0.26901150612930513,-0.21351476270802847,-0.15575616472589826,-0.11787285412332651,-0.10235628895163873,-0.10035530989851092,-0.1024059155585401,-0.10341793930647197,-0.10246367241859763,-0.10063318175657968,-0.09899937227992481,-0.09775779587434358,-0.096264142100634,-0.09361730941799963,-0.0897062714653683,-0.0854955116233544,-0.08189593305687254,-0.0789673733825455,-0.07638138549018939,-0.07397815216366838,-0.07179573055178591,-0.0697877477086054,-0.06746531846206612,-0.0639252339609177,-0.05850777135673681,-0.051261543973121736,-0.04271913841621599,-0.033636611703236,-0.024568884370266567,-0.01548125532262147,-0.006414164243777085,0.0020756570838815613,0.009843952080241667,0.01782004773245285,0.027408925181975928,0.0393515055965225,0.05309687486010793,0.06723449806894771,0.08042242216615678,0.0920914527765612,0.10234433461356951,0.11112267867069651,0.11797360454309291,0.12280496979877094,0.12650184704525808,0.13033951750433698,0.1344146266499994,0.13734166151762378,0.13791781112048784,0.13606071878058582,0.13188785109806272,0.1246454985729181,0.11302766721234848,0.09673651901614469,0.0770792879000407,0.05587515901114111,0.03480723426383965,0.015450336932739554,-0.00138516222653658,-0.01634198447731378,-0.030770573918413473,-0.04487309402333354,-0.05722280083624985,-0.06643045512749132,-0.07238147193245395,-0.07594042070012554,-0.07822491323432801,-0.0799066111272924,-0.08105417086571895,-0.08164294444942753,-0.08155115662732924,-0.0801324505757655,-0.07662677872109373,-0.07103327056478889,-0.06420551742740435,-0.05709475875292992,-0.050156127070249,-0.04357579454496009,-0.037827979653558025,-0.03362308195657214,-0.03103912337973489,-0.029206443605473073,-0.027306716661893146,-0.025137205768801834,-0.02242289429413474,-0.01853612415514169,-0.013413633470249034,-0.008115349608112499,-0.003961865588230938,-0.0015184933547169668,-0.000427856722060237,0.00016454013386297747,0.001006061484851382,0.0022510784827895845,0.0034368065383631897,0.004218721460589391,0.004776782315731566,0.005502920118001117,0.007076941720189292,0.010190062631273531,0.014611705527963079,0.019072313130303907,0.02198016491942633,0.022232226149899958,0
0.005177217159561572,0.0058399252880989416,0.00545547563655192,0.004480696258947251,0.0038091090411990778,0.0036244053152082426,0.0034567858721557864,0.0030589686650979012,0.0023235596455993875,0.001270092610442359,0.0008111238561994815,0.0023319554365511096,0.00604902578864191,0.010278838620344215,0.01260457822129641,0.011843608407919752,0.008481557748077089,0.003513542690446665,-0.0022414078166645935,-0.008215974114073361,-0.014346711278494295,-0.021135353635247555,-0.029032428523677333,-0.03751634980635055,-0.04519743781778171,-0.05118213886821613,-0.05587094864444019,-0.060212367909992646,-0.06461735878946523,-0.06871820323055684,-0.07205077531827316,-0.07495169444104706,-0.07835485817400847,-0.0826388662772953,-0.08731295916105662,-0.09173986781465934,-0.09580756007958056,-0.10028173836999293,-0.10656004956037349,-0.11526229518245329,-0.12387865276037113,-0.12455390696980607,-0.10462079383388144,-0.052183326543786386,0.03637740867566669,0.153601316365877,0.2850751640858734,0.4158202791762673,0.5320142990184682,0.616423785090055,0.6448784191669624,0.5926246068163837,0.449939744520646,0.23621113848919661,0.0003159667137437145,-0.19687460115365615,-0.3098916901098263,-0.3292535306642715,-0.28155151224626795,-0.20989509567100761,-0.14951134328951185,-0.11477987969272581,-0.10225137146615015,-0.10156059848064156,-0.10395160389094607,-0.10485431940405499,-0.10316082977413867,-0.09964877064585238,-0.09519706394319799,-0.09009272988727432,-0.08480138235817476,-0.08032227638601981,-0.07745860135206689,-0.07623410313262123,-0.0758073802396138,-0.07493838634044374,-0.0728475304408043,-0.06948720686986458,-0.06517624727474723,-0.06007584974263113,-0.05406213734736426,-0.04735556027851082,-0.04083493407421944,-0.03526048766258122,-0.030329427255296464,-0.024880613674970617,-0.017962629111080403,-0.009379881927659102,0.00038382055759954986,0.01049011997520828,0.020292272115482228,0.029901527931294705,0.04022166574649089,0.05174501428095201,0.06356402779199727,0.0744984369434395,0.0845313594715834,0.09433079727125687,0.10398292539360648,0.11284681192884972,0.12056849287559925,0.12762304306606062,0.13432645471718332,0.13969348143774968,0.14196151578573488,0.14028280757318926,0.13549394372172663,0.12893913433097812,0.12082674954723775,0.11031168677449613,0.09683066682458752,0.08047947803122871,0.06140751130866657,0.0397796864702715,0.016588522322555442,-0.005931694261545405,-0.02544494862175202,-0.04108095858559451,-0.05346470528489701,-0.06364951455518424,-0.07220395217601866,-0.07880087250672388,-0.08290125295440032,-0.08482495620587227,-0.08537679848383123,-0.08500427044308805,-0.08421806484674277,-0.08407359873368961,-0.08532994458776662,-0.08706183715482638,-0.0866339471664,-0.0816327426096284,-0.07187352635299368,-0.05965294837092726,-0.04829290822389163,-0.040414691603086486,-0.036987144718016673,-0.036926025147456666,-0.03762881692474833,-0.03663423347509896,-0.03275512733796291,-0.02591851984918965,-0.01687089517043599,-0.007206935276663844,0.0010683311001817523,0.006578366936035692,0.009313174610060405,0.010483976535772353,0.01169049790293529,0.013876910356852094,0.016658175105732705,0.018765812612740615,0.019249689660269177,0.018142074505506305,0.0164096943825048,0.015213212460684066,0.014746173221155486,0.01412026874763689,0.012638205615745017,0.01095011175276829,0.01039899277714029,0.011262277053854765,0
0.009186344107126565,0.007707541462927071,0.005623709132582525,0.004049849361844141,0.003818089314300573,0.004920786858414438,0.006654469106443251,0.008303121966042167,0.00971767801134359,0.010770861665420687,0.011079676268841567,0.011039404660129976,0.012052460553974053,0.015000823451561934,0.018927267457234557,0.021495080012497888,0.020747351443070793,0.016450300353648063,0.009662425288853103,0.0014143484897947884,-0.007702875111506108,-0.01728185354266208,-0.026958220785059987,-0.03620105519917902,-0.04437282574146671,-0.05136599003371177,-0.05759816765808669,-0.06302724235186603,-0.0671644600636825,-0.0701313345707233,-0.07279799810047942,-0.07613984961217943,-0.08061773799791026,-0.08565864730014622,-0.09006647155451154,-0.09330998013667377,-0.09611576370962928,-0.10001893074157116,-0.10666214044687854,-0.11706161105896551,-0.13038651198634083,-0.14186365835215822,-0.1409770434711726,-0.11334668735956736,-0.04792258851646803,0.05569294284768176,0.18659334871557226,0.32806705873693004,0.46311971026733223,0.5748694415500147,0.6425509639747992,0.6408486803263433,0.5494341143955352,0.3688217588542797,0.130216692391432,-0.1102099834704782,-0.29315595306710585,-0.38311091019121174,-0.38255171593276643,-0.324716141183464,-0.25211595244718044,-0.19534545461938022,-0.16420013054050756,-0.15307221723299824,-0.15183962656670627,-0.15251793762387908,-0.15035396049440955,-0.14341397892058144,-0.13198619734803435,-0.11711626504772034,-0.09948090637258664,-0.0796772501963573,-0.05895246926466879,-0.039021698629507474,-0.021128138544852054,-0.00561634276788339,0.007545129586321449,0.017990872796369326,0.024811451964119685,0.027345411514540188,0.026030139312502233,0.022467378808831207,0.018982531613434418,0.01760711718359859,0.018892277760363136,0.022174294912539843,0.026632093013670304,0.031545128000212905,0.036386619941909414,0.04088480874624558,0.044888885284526184,0.04870242405689587,0.05327802784298258,0.05957063258471108,0.06777063989501939,0.07726832204071804,0.08709085094380296,0.09632144045411362,0.10464098814515974,0.11237071675604737,0.11947018103126442,0.12513631765125052,0.12904289791722007,0.13205613851886988,0.13509074766817886,0.13800545706497158,0.13978467767805097,0.13895799639387457,0.1338953367915968,0.12352893001849487,0.10779139852022757,0.08746986315753832,0.0642282462336338,0.04042354359258465,0.018129281282693126,-0.0019233141943479845,-0.0202000265219918,-0.03692004132377713,-0.051287383075933946,-0.062492837025384225,-0.0706660720407253,-0.0765601834772001,-0.08070268643227671,-0.0828280417935684,-0.08246533689766972,-0.08000860766451746,-0.07635067400312563,-0.07194914973795563,-0.06704006886158333,-0.06204812819187133,-0.057388182512252604,-0.05327137748624204,-0.049618682873492456,-0.04588377347378632,-0.04118146505185075,-0.035035766561256884,-0.027879468675396632,-0.02054656282448274,-0.013694534447487567,-0.008009932614037464,-0.004403255587182828,-0.003359295948358253,-0.004241161475602488,-0.005600986815879609,-0.0062114290973893475,-0.006033708230495694,-0.006034437152216953,-0.006632993269601747,-0.0070320059878793886,-0.0065519929368411944,-0.00572399255009969,-0.005492569283883282,-0.0061260410068070936,-0.007585211587565402,-0.009966509783279974,-0.013069793726742175,-0.016478602490029342,-0.0198934469416307,-0.02301236895340402,-0.0256139943400274,-0.027748116228226257,-0.029675962242699055,0
0.002734942554486533,0.0035777685211689503,0.003885942259851406,0.00397146587894319,0.003874045545804708,0.0032143596834235343,0.002276206045951292,0.002143699541307874,0.0032438608594859367,0.004725781600237852,0.005698079256511619,0.006251507231912145,0.007028808964356026,0.008192909537485204,0.008922762669323224,0.008250865431302021,0.006099383870226819,0.0028733003813630883,-0.001275894359361018,-0.006320166908547003,-0.01228915034457855,-0.019393977294855702,-0.027626898437015067,-0.036455742336072766,-0.04497297010608205,-0.05218356987748624,-0.05759028280755289,-0.061518482183759354,-0.0645964248263135,-0.06746027885532407,-0.07097623062140665,-0.07561985683041676,-0.08079078371756071,-0.08557481103432883,-0.08950036017870815,-0.09237057865566145,-0.09464009503047201,-0.09818272464800912,-0.10521107982275305,-0.11542542470377112,-0.12397736458128863,-0.12148989672353058,-0.09650302630744696,-0.04042688889984917,0.047366871470778046,0.1580536716162519,0.2776213563449062,0.3938697605996585,0.49783666122786796,0.5767743610503856,0.6078717562863537,0.5638833531075358,0.4311784185548414,0.22719758825192082,0.0011324048781738278,-0.18599178679148765,-0.2900396523998042,-0.30332221950407245,-0.2533497501048664,-0.18325976160623114,-0.12769882524826748,-0.0995465612144997,-0.09337274202197166,-0.0974973206928496,-0.10276805964961933,-0.10487072773436754,-0.10327504050855728,-0.09920591816001068,-0.09437884053548568,-0.09043329581537267,-0.0878682255865088,-0.08605824633020863,-0.08453519809019654,-0.083046505165993,-0.0811195456005532,-0.07857965645807613,-0.07565820874385346,-0.07232745865496162,-0.06825603741986459,-0.06345866139860164,-0.05838385304573074,-0.0532802997694765,-0.04781555372234627,-0.04144640883659655,-0.03411644893505476,-0.026314377711370754,-0.01847590786508361,-0.010582430187490763,-0.002152399042784324,0.007380974436595416,0.018091752191913404,0.0295736633295913,0.041447580989418434,0.05347175675160454,0.06529259027619863,0.07657240201407893,0.08746163964196314,0.09843436136177369,0.10944756157865325,0.11965154665030575,0.12807669465403504,0.1344002745388691,0.13900301602131354,0.14228184642090877,0.143885014176616,0.1431120067869275,0.14008219421391915,0.13541804302262306,0.12858809790712414,0.1178246798421926,0.10207169578224015,0.08205297304884636,0.05943593443304633,0.035879531560553166,0.012805778380871404,-0.008608917092004138,-0.027579866445640016,-0.0437804714390925,-0.05706054202546185,-0.06721472923710056,-0.0743642951011857,-0.07938369108564308,-0.0832001590633489,-0.08589755911118284,-0.08721227773045817,-0.08723591401808459,-0.08597070197527976,-0.08318213133640782,-0.07927983010355037,-0.07509188842643229,-0.07065717453118481,-0.06565807138649318,-0.0604413732086828,-0.05545830262987128,-0.050764850073227064,-0.046454056168891186,-0.04240539763929524,-0.03801616359092566,-0.03295986475216853,-0.027568619978042656,-0.022436812774526096,-0.018179730558246912,-0.015134892756316765,-0.012822197604830651,-0.010246349178199237,-0.006980089945781743,-0.0033797932084669562,0.00012033489455731336,0.00339778712812777,0.0064950745434009145,0.009327977783744926,0.01152820433117855,0.012759718908552023,0.01326348519152374,0.01354821959927278,0.013710461571904071,0.013878994106413103,0.014601742393266373,0.01600471100197937,0.017336890321249528,0.01774685322474217,0.01712407686037403,0
0.004387471171766902,0.0034144883727436426,0.002516920679697759,0.0020201800998526855,0.002188289796569821,0.002726449701720525,0.0032266055385408742,0.004013839613486199,0.0055414448768661894,0.0075104341211555525,0.0095080369772268,0.011365558759664584,0.012472299398340957,0.012151068809576244,0.01064778280759808,0.00865252979654965,0.005997214160424359,0.0014142320367646949,-0.0060842146186711535,-0.015728445952846674,-0.025523399768523594,-0.03392209505415841,-0.04045419529471811,-0.045644918458799255,-0.05058882460976971,-0.05576945253437598,-0.060695111955706524,-0.06497469574371059,-0.0688507934878552,-0.07269969767792858,-0.07668110871966044,-0.08079749559753006,-0.0849931046782985,-0.08913894738822654,-0.09297629433679294,-0.09625846713014446,-0.09931532670753587,-0.10374730571428922,-0.11181823745025354,-0.12349517045310257,-0.1332331464825345,-0.12968856386496347,-0.09922636546034569,-0.032300196593469166,0.07073068536936739,0.1993648422820679,0.33858897189466625,0.47392659771628076,0.5899747058822667,0.6651862280140836,0.6721084925184547,0.5881476945414,0.4120568873351045,0.17484542002925085,-0.06530421008467059,-0.24611937491559704,-0.33069906400326277,-0.3235176165524346,-0.26197674155280093,-0.19130951162644033,-0.1412709918489985,-0.11812080974545458,-0.11224475742826334,-0.11142277447557337,-0.1089099194680704,-0.1038418763695749,-0.09830485426917274,-0.09444700847927301,-0.09303991317122627,-0.09361781859820219,-0.09474938743889913,-0.09441891977956074,-0.09148170578726171,-0.08682521711318204,-0.08224183229686953,-0.07836199970618607,-0.0746177909005792,-0.07071170000006842,-0.06675965928601342,-0.06242396137741539,-0.05737104830141117,-0.052027461110840695,-0.046732166520112674,-0.041058190653925616,-0.034507957463197604,-0.026901241091972634,-0.018285751792985683,-0.009250240519512478,-0.0006288325108506996,0.007591635217810174,0.01628726121138354,0.026143908784165212,0.03738880065224042,0.05001659359092907,0.06338579066213004,0.07621956868705429,0.0876163276646286,0.0975065317460415,0.10602998799861166,0.1132159564345851,0.11912029274717231,0.12371005417913285,0.12706646339933356,0.12973633142728494,0.1321728757713195,0.13402132235716885,0.13433801722978675,0.13204323790546033,0.12611414876857244,0.11607143080035949,0.10235532131486155,0.08590885058742873,0.06771604424855299,0.04875921672395323,0.02978537200671759,0.011013624692173724,-0.007617375652273408,-0.025830666160153073,-0.04266407582802932,-0.05678194443214378,-0.06719853015202319,-0.07380803586251625,-0.07726778743288182,-0.07859463608370747,-0.07891020121760456,-0.07898912210216778,-0.0788338191611968,-0.07805707312649253,-0.07667163564485517,-0.07503622824139548,-0.07303920928012309,-0.06993054585122895,-0.06521985866703399,-0.05934838617489332,-0.05317934467383703,-0.04720946394913095,-0.04152664109808847,-0.036256353090800206,-0.031845354133482016,-0.028652413837781207,-0.02608842455429037,-0.022735043899194677,-0.01778850108917973,-0.011971546787860034,-0.006664252906964967,-0.0025853427011408962,0.0002044177411789569,0.0016897723119192586,0.0020196528217642108,0.0017376292918049735,0.001616489968941477,0.0024162090171696606,0.004584887161667108,0.008009840798531176,0.01187848478082213,0.015014371186596022,0.01665387914983895,0.016699043289620623,0.01542490801825105,0.013159177401584206,0.010369924147902377,0.008035352622807421,0
-0.0005709463069405603,0.0001310742411961332,0.0017147295116252056,0.0029936564760062565,0.00359132546855848,0.0038650762730361348,0.003950692501455321,0.003457294922379084,0.002446150508705904,0.0016600073414794181,0.00162572561353022,0.0024748794257145558,0.004305637167145733,0.0069151987006871125,0.009553927407618493,0.011319078143887365,0.011437859640196751,0.00907858993898733,0.0036935936908025708,-0.004134476228098455,-0.012951916977035013,-0.02145052247031762,-0.02893594977775926,-0.0353645256255338,-0.04103922917113002,-0.046380524014193986,-0.05202886424759269,-0.05843180131386129,-0.06532699616726938,-0.07197808518409898,-0.07779496694260817,-0.08280719616243562,-0.08737716874761656,-0.09140152765299302,-0.09431000880914242,-0.09599684475329757,-0.09749048491818728,-0.10071289569382862,-0.10735692649038617,-0.11744356257351517,-0.1283542514185513,-0.1337882962541129,-0.12303795937335464,-0.08376040196631492,-0.008659800222346008,0.09937410153051139,0.22860407946864472,0.3643446181743325,0.4926812990136311,0.5981003803710048,0.658926473134491,0.6487024212827669,0.5480142782747404,0.3616524652603915,0.1272741204787505,-0.09522636240634363,-0.25013629928343833,-0.31193037322030653,-0.29375520471941674,-0.23392118939200768,-0.17180327159043882,-0.12993960797278784,-0.11122951175283866,-0.10742397235224758,-0.10894637268236179,-0.10998880267524724,-0.10898364399099073,-0.10659404088623513,-0.10368317099787372,-0.10053350781631168,-0.09678870617897438,-0.09225103328289425,-0.08771834568246166,-0.08420562123126005,-0.08166359672800122,-0.07903363506983671,-0.07565655589510659,-0.07211806000854461,-0.0691007513931392,-0.06611412559530072,-0.06194609836690528,-0.056080283408573954,-0.04938864318425459,-0.04310136605786061,-0.03728422748582936,-0.031050377099620476,-0.024106223202205387,-0.017226712388215108,-0.011041963616061636,-0.0047322836568137044,0.003419939136208198,0.013955188088971315,0.025803580949072036,0.038160049024694394,0.05124351468407208,0.06491115809776184,0.07795276288003021,0.08915739224183399,0.09840735431659228,0.10653891864618757,0.11435244906458347,0.12207178346822595,0.12957003913622353,0.13621007494903323,0.14070372427042277,0.14223356928452655,0.14112646859672134,0.13760228427974389,0.13103409071391428,0.12122363395723841,0.10918506895702451,0.09580667559960566,0.08078797877126324,0.06362426704270245,0.04442628230469004,0.023418431863582348,0.0010369920019841564,-0.02137563855067192,-0.04185439033547676,-0.05846178453681441,-0.06981036155316227,-0.07610385729430927,-0.07929402504559287,-0.0813503749987903,-0.0830092233547656,-0.084266746756404,-0.08484430777784538,-0.08414298344900902,-0.08177982313315806,-0.07811040065724513,-0.07378820289480811,-0.06934367042086648,-0.06523357641599045,-0.061435065078290364,-0.057344545784379,-0.0526805963367779,-0.04783516048223666,-0.0432423690763722,-0.03888094331287185,-0.034278128283284234,-0.029053682945959218,-0.02366188069908825,-0.019081891043976004,-0.015561316270179945,-0.012276608143419097,-0.008396561607996888,-0.004152272091636027,-0.0005207077670121608,0.0019959966536823963,0.0036784305419904195,0.0049761072887243435,0.00625838162366567,0.007989043773298631,0.01051037459157369,0.013433324137223618,0.01581164793948419,0.017055699098207373,0.01707531481359606,0.0159843465429483,0.01439608446586208,0.013270910994524411,0.012985094912955807,0
0.002328330856426637,0.004051856974570994,0.005483086722099633,0.006169108345449311,0.005818037052585666,0.005033314856100606,0.00507522802370313,0.006412735923414202,0.008188724400115588,0.0094513219642699,0.010098005119986937,0.010490729557045176,0.010871280197584158,0.01114841074186946,0.010882876710891644,0.009632840414897384,0.007477549290309707,0.004817366845127883,0.0015399821991131995,-0.0031296473668734727,-0.009734591197864217,-0.017923549358935514,-0.026901085122883132,-0.036023321160622755,-0.04463631015190396,-0.05190902172612244,-0.05743403794350037,-0.06174120059158073,-0.06576763239840168,-0.07001736719445054,-0.07432845249245472,-0.07815764621483706,-0.0813022865611808,-0.08459715168417592,-0.08905173234613357,-0.0940079169857176,-0.0978047961889016,-0.10072823819484229,-0.1054416830172229,-0.1138470574096562,-0.12408284060741814,-0.12938595856853105,-0.1185567875770638,-0.07957904848917165,-0.006145055165674847,0.09821993660179398,0.2223148455209835,0.35288105363674493,0.47739638430072134,0.5808623580685409,0.6411731355482472,0.6314461233173243,0.532412842932133,0.348793048093608,0.11751945818432173,-0.10183577057893778,-0.25300085787456694,-0.3101569235386944,-0.28726534630552913,-0.22410627420021578,-0.1611309644123824,-0.12071256074765124,-0.10440795237252846,-0.10262944656067322,-0.10559849286350731,-0.1078912940335146,-0.10765280795964752,-0.10497869331911336,-0.10091887857560645,-0.09658077074826704,-0.09265657517107949,-0.08962232880431678,-0.08774059917442291,-0.08658764732988658,-0.08525147447010029,-0.08317324713644667,-0.08012667681414584,-0.07577885805749679,-0.07022818441975968,-0.06440394217141077,-0.059154378755004906,-0.05454716530103358,-0.0502754428460829,-0.046029300500278716,-0.04136482195138728,-0.03570554699677961,-0.028664240677639743,-0.02020639331120532,-0.01055640607394441,3.4805932201968995e-05,0.011302036931168378,0.022698317387176814,0.03365360472416022,0.0439960056051065,0.05402093944857529,0.06446006232229036,0.07592183446716562,0.08828044817908404,0.10075486205298269,0.11230720322415759,0.12220891044431617,0.13034129685865398,0.1365751132285718,0.14015645577646155,0.14055142630601533,0.13849481245418288,0.13537431468716704,0.1319628822211511,0.12767318441469389,0.12090628820310098,0.11054933697617335,0.0964687042194311,0.07873730035051622,0.05772990156339745,0.03482663064861524,0.012246988675254963,-0.008089352770005671,-0.025521739196447065,-0.04049412214104377,-0.053582441241795564,-0.06463040394562089,-0.0730924085526143,-0.07897498200411478,-0.08270192435270514,-0.08461382254815354,-0.08504739444803748,-0.08437285383274835,-0.08294021606542634,-0.08093288957197087,-0.07826660145006166,-0.07489920990917451,-0.07085558748736902,-0.06604553833682204,-0.06059369812951327,-0.05496224453304466,-0.049537387337834485,-0.044432154780549786,-0.039614469247650795,-0.03503436896733307,-0.03066807894900095,-0.02651995981891809,-0.022624353383870748,-0.019038507718234683,-0.015774330140611238,-0.012646313708294924,-0.0091852956138743,-0.005025152169462482,-0.0005833419971623729,0.0031787472859086743,0.005839494852875684,0.007759733542103468,0.009413385693866783,0.011019240512263568,0.012628163736781925,0.014207346089585413,0.015552191628863078,0.016198767084655695,0.015800937374047575,0.01481948640820714,0.014290192925294222,0.01468979507398546,0.015542466076528129,0
-0.0002764298762035002,0.00031256613765511107,0.0017718009966093977,0.003677425332392846,0.00542047403617497,0.006612517963903972,0.007388125454100244,0.007868260217091983,0.007688265399693262,0.006442878827622996,0.00462605777942709,0.0036205934527973674,0.004421806707047215,0.006810232671626966,0.009787862049583347,0.012097939632984746,0.012354737033550946,0.009719736929468158,0.0046106098455099345,-0.0020357629622008077,-0.009768976178659822,-0.018252197761341533,-0.026705073434558618,-0.034374352501360735,-0.04124810897799333,-0.04789867034071131,-0.05464369566216052,-0.06104819015268605,-0.06630756388707783,-0.07027001403291129,-0.0737042099839509,-0.07721881607447234,-0.08082846519253058,-0.08464265082917102,-0.08878353058953305,-0.09292157470516388,-0.09675256926179286,-0.10085395246955126,-0.10686789737388028,-0.11626983989740393,-0.1278411265469661,-0.13522612019812583,-0.12680441704467035,-0.08942222327327584,-0.014761669420867225,0.09536386111560496,0.2292006987549489,0.3709046507129699,0.5048682309842392,0.6132782773062793,0.6721973440637089,0.6548639191628988,0.5441802353954318,0.34799203905104475,0.10572559526305494,-0.1220591063717178,-0.2788288166946324,-0.33832775685757105,-0.31435801393532437,-0.24727963007478987,-0.1785470110557913,-0.13180433782409243,-0.11018934536396435,-0.10508119153426947,-0.10615092658531629,-0.1070289582432454,-0.10575158376955841,-0.1025944809045699,-0.09860574406866005,-0.09507428114170521,-0.09279881915495666,-0.09139287294922996,-0.08964610196670708,-0.08667156895699202,-0.08249558665560648,-0.07787450859210633,-0.0734993255895509,-0.06925048816025235,-0.06473157216662426,-0.06012655552784662,-0.05599754597962758,-0.052432878083763325,-0.04858068062776987,-0.043438416815378814,-0.03683310859306338,-0.029041355043537283,-0.02025641035415115,-0.011040644672793335,-0.0023452003769077745,0.005410342663735652,0.012721243476232337,0.020641348772837825,0.03034273384697759,0.042393907044553675,0.056200290993248234,0.07036576700659321,0.08356414931617295,0.09523821578572844,0.10552053077133118,0.11439914163009081,0.12140646690083788,0.12622704135527432,0.1292884257267501,0.13167533730204123,0.13426215047712078,0.136780698994714,0.13796702161078553,0.13654143557924925,0.13142347573687999,0.12153008554024454,0.10668446438098267,0.08832365728408946,0.06842362809432692,0.04801508403226179,0.02725972949595402,0.006779148532299568,-0.012122383808036378,-0.02864566539651549,-0.04285322987774804,-0.05513551561064256,-0.06585437533891426,-0.07495402655109802,-0.0819364694284658,-0.08636892894590151,-0.08819011405422561,-0.0877237703901925,-0.08553526046607152,-0.08231302199689969,-0.07903452259795958,-0.07661705018934442,-0.07487553847562135,-0.07254823007668125,-0.06870785696005317,-0.06350261712538643,-0.0574130979406867,-0.05069366496580998,-0.04388527892378016,-0.03787075118670982,-0.03302081764444882,-0.02900464090928414,-0.02537932390969414,-0.02180280162441401,-0.01785651203143425,-0.01326102129820674,-0.008421353697563992,-0.004100103706031437,-0.00041889749561320987,0.002886129937612553,0.005469039459220346,0.00691237302087363,0.0077397735093244005,0.00889790202531901,0.010989292565029105,0.014108303940505404,0.017462400373317536,0.01959072899688397,0.019768751418658508,0.018873926835766323,0.01839790656170783,0.018828531911571376,0.019348985962890846,0.018905792152283885,0
0.0008794322306583108,0.002670002547667245,0.003959764568737824,0.004599668710886394,0.0051731490590909346,0.0062316766759142935,0.007529277068908767,0.008236114188644759,0.007775807143939947,0.006681244087574074,0.006411596023132566,0.007948066766488123,0.010900873531117076,0.014041171893423618,0.016255188203435876,0.016815918924829847,0.014982108371492296,0.010095125340393588,0.002275411104247896,-0.007529968048898336,-0.017890770336366126,-0.027280146837173478,-0.03492368985703177,-0.041119357204369135,-0.04640745316401035,-0.05107253606788348,-0.05566193621338219,-0.060905293516740615,-0.06670275451746921,-0.0721721910540736,-0.07685033356400335,-0.08105632954590014,-0.08523657375473609,-0.08951243833035609,-0.0936781652904561,-0.09740295739762643,-0.10070485114049983,-0.10465492039205274,-0.11140300531180246,-0.12212396187865181,-0.13360942016438804,-0.13693387488408096,-0.11992851507702987,-0.07169431436433056,0.012553000954995074,0.1279242694580375,0.2613097266255037,0.3976214436333201,0.5228952913439294,0.6201787108247371,0.6652423838926219,0.6313487872721335,0.5043795525719441,0.2988482344357245,0.0611017368547644,-0.1467306934181757,-0.2750782468039444,-0.30981407111959863,-0.2740688276033828,-0.2094823505007562,-0.15195060011242364,-0.117867407101378,-0.10569999137689012,-0.10564746976501944,-0.10840906000925975,-0.10930162090815077,-0.10796502321603618,-0.105804739707585,-0.10376414319856508,-0.10169731878788696,-0.09901550969944269,-0.09561110630501557,-0.09196985627327162,-0.08853699043858362,-0.08529088984090163,-0.08178196061118975,-0.07762381653537798,-0.07310238802956895,-0.06880097744663084,-0.06468819621641866,-0.06026513034572857,-0.055106536302481135,-0.04894591589806272,-0.04189128951500808,-0.03441638205803932,-0.026912066343024895,-0.019506138671098464,-0.012169147112007386,-0.004719395501428001,0.0032767057822767672,0.012333198401691715,0.022630770039770653,0.03405062150642286,0.04635441212407719,0.059026767972552865,0.07140589076109623,0.08282430634478327,0.0927151678797213,0.10120373077133715,0.10893033124669549,0.11611810862212268,0.12245072176222652,0.12753592299321875,0.13144466001379113,0.13485135215452074,0.13797125272949493,0.1394100605309492,0.1369176876126965,0.12945015260787948,0.11780425565523178,0.10328589392141097,0.08665374151818485,0.06839576572789513,0.04922487035182119,0.029885259052549646,0.010814041532857137,-0.007684295463972712,-0.025204694135770256,-0.04124899053129073,-0.05514950787076506,-0.06636042017695631,-0.07491433868665073,-0.08092757922819849,-0.08423376611325487,-0.08493675776347315,-0.0835351756204716,-0.08086424297769236,-0.07816023414969593,-0.07631948787180824,-0.07522882114192259,-0.07401709113606231,-0.07164712214857047,-0.06763728997269237,-0.06231158849343425,-0.056095219737210565,-0.049181413802072804,-0.04229006593961368,-0.03680899819488804,-0.03346330412768382,-0.03130017615110921,-0.028496172884142874,-0.024117070128368168,-0.018776507491461293,-0.013458815566708355,-0.008379187689827768,-0.0035982511793946435,0.00021254484830684345,0.0023721071886407697,0.003056198344350161,0.0035564659591293558,0.005346488752721739,0.008413591073400964,0.011412811637758856,0.013501222310936454,0.014915227739451253,0.016031033684400085,0.016647174582645807,0.01621488183710889,0.014587858723104377,0.012333033717603279,0.01050628896295493,0.010242384359323054,0
-0.00040910616644257,0.0012740924495365507,0.0030252986268123477,0.004398373851251793,0.005174846473429767,0.005365831094108827,0.005308650852434612,0.005199981424774353,0.005061551995840367,0.005353456239018778,0.006441497595443917,0.00778190335756485,0.008692244684278627,0.009172706244410706,0.009418282699906784,0.00909409258700308,0.007390428899161268,0.00383433322018845,-0.0012711557217977357,-0.007528300345244208,-0.014937352935249188,-0.023267968567491675,-0.03155280110465348,-0.038675861819635435,-0.04445325406704333,-0.04976511353836069,-0.055367896875064083,-0.06132855184569974,-0.06747224832281006,-0.07315578248028685,-0.07742330608463137,-0.0804316722440375,-0.08349656140945497,-0.08740718750621013,-0.09180212799960928,-0.09598476021450722,-0.09976308778839012,-0.10395160014616686,-0.11021839261448896,-0.11952030124132618,-0.1295848299729039,-0.13316984674090132,-0.1187529527109138,-0.07471899746546341,0.004348558249669837,0.11394824425372757,0.24187703620145168,0.3741083489560343,0.4978855691907373,0.5982462894721877,0.6527492394597278,0.6339885077903554,0.5238760162102993,0.33128417363692947,0.09796931445607686,-0.1150294331320065,-0.2548273781853099,-0.30149666379596807,-0.2733567676746238,-0.21078466492507275,-0.15205871793999193,-0.11666664982620466,-0.10389225225469831,-0.10333762157737705,-0.10601832934763197,-0.10799719593799004,-0.10837658043524397,-0.10711271008352097,-0.10469255680256093,-0.10208938770290979,-0.09973507239301381,-0.09714711857148665,-0.09396695377088503,-0.09048561628659688,-0.08714746787324568,-0.08415304146096642,-0.08138241000336116,-0.07837862363846286,-0.07459978836809351,-0.06988583552792674,-0.06445839905911899,-0.05869720966775818,-0.05306149067413882,-0.04756647397258383,-0.04163921256109418,-0.03497084375902344,-0.027750399420318768,-0.019968272451690097,-0.0112640164707311,-0.0014621272630727673,0.009298919245062471,0.020744269746166596,0.032504821811392796,0.04448663578264572,0.05677221174008241,0.06884946112871412,0.0799959322151593,0.09024004764996876,0.09996953159167428,0.10913834943598603,0.11739336545111212,0.1245531090568102,0.13097928614026072,0.13720923722663603,0.1426649684949406,0.1455761604546547,0.14466304953792647,0.13999554394695563,0.13211836120823356,0.12135744550160689,0.10820426376546624,0.09324000858525239,0.07634978321550484,0.0572017415943472,0.03660745282396066,0.016170334611965525,-0.0032196760669505123,-0.021422628586387292,-0.03807844254151581,-0.052543116433764504,-0.06441499865103051,-0.07361738591366476,-0.08014619658411669,-0.08394925861654541,-0.08513031695923907,-0.08437775965056316,-0.08299349282931714,-0.08188627891789874,-0.0806063678153659,-0.07811598718852601,-0.07417239414869825,-0.06944875620907148,-0.0647009694514915,-0.059872552602450405,-0.05447572417154084,-0.04892815478965492,-0.04407288398612055,-0.039783815196653784,-0.03544818025316529,-0.030955496732458166,-0.02653993800002395,-0.022369459909687646,-0.018480600316326378,-0.014848480086842966,-0.011445554443043656,-0.008258016732572641,-0.005280550933125168,-0.002510228893962794,5.4535986856398336e-05,0.002415199716859851,0.0045827472595542165,0.006595251595894521,0.0085179541564896,0.01037508206609068,0.011995903194353967,0.012926984851580881,0.012817309918562845,0.012096637839478418,0.011735396180703685,0.012168102359564077,0.013068387831059862,0.014030942148731552,0
0.003973609186760527,0.004369827180131713,0.0049018652296346915,0.004922572870243057,0.004349119814680915,0.004148070016164521,0.0054100852584966245,0.0079921922095597,0.010513550933953727,0.011424523232590314,0.010171544086942886,0.007656004868458573,0.005349284570531103,0.004104948798992685,0.0041288132205955,0.005201095004370315,0.0060162307714025694,0.004288838288907682,-0.0013238031425643491,-0.009982291647326693,-0.019859328971388975,-0.02973398078193989,-0.03912542739216821,-0.04783838045814674,-0.055732399779438224,-0.06226217196660977,-0.0665434614150595,-0.06877662632256698,-0.0707869940557782,-0.07417661128919878,-0.07873558095974825,-0.08331781514808669,-0.08745520881218811,-0.09115841535857447,-0.09389015111970218,-0.09539270151970894,-0.0972343647773135,-0.10210578630691107,-0.11154291812086214,-0.12421749567311573,-0.13460356801694834,-0.13210869418467056,-0.10321017816805406,-0.03753980164002031,0.06588990731648112,0.19745362089421292,0.3413854626648751,0.48091696057820094,0.5988056659772797,0.6739653107619803,0.6807588909261054,0.5973725535749547,0.42178232082024886,0.18380920791040584,-0.059231770572423285,-0.2451598041692564,-0.3357795710223266,-0.33318266909598415,-0.27279722288501446,-0.199665877455749,-0.14503173288925408,-0.117180581016538,-0.10827343114954649,-0.10724385659151378,-0.10741698071272658,-0.10649452949950901,-0.10413291710454767,-0.10078141614659811,-0.09716504339819047,-0.0937635148329822,-0.09072116123726859,-0.088015355709363,-0.0854566113743792,-0.08256629403502035,-0.0787973313771051,-0.07413266775476998,-0.0692507545124427,-0.06508045789472121,-0.06212592067152461,-0.05977855825576403,-0.056565015181591315,-0.051525455190420684,-0.04499790419438712,-0.03793439317065046,-0.030961736306747707,-0.024169430176204775,-0.017278341475332457,-0.009795596168858473,-0.0014024408080776825,0.00760412704430621,0.01687142542989667,0.026936816306704046,0.03855220612011225,0.051337516928462265,0.06416040018863733,0.07644701424304258,0.08826785299377539,0.09958340300048563,0.10994681208162578,0.11857724777713805,0.12497564226458124,0.1296706941388648,0.13353136472995994,0.13658586997887023,0.13831345411383836,0.1384991594538006,0.1369798387800196,0.13292625620434206,0.12527031978134012,0.11361371062896558,0.09828134373078269,0.080109176095523,0.06015374205924245,0.039251949174311365,0.018195016565135773,-0.002095547125271418,-0.020927920904527064,-0.037839199701604743,-0.05240441759146714,-0.06437903687672711,-0.07373250606608713,-0.08047180366714661,-0.08455536476177761,-0.08603196533113944,-0.08536269870587763,-0.08351952305669268,-0.08153093891559278,-0.07995406322975446,-0.07873927871259592,-0.0772592788796264,-0.07459217462866413,-0.07031262105306035,-0.0649157436285986,-0.05909586384378106,-0.052936671114209286,-0.046349293913167056,-0.04012682799968713,-0.03552223296515923,-0.032540385245438536,-0.029914136711828687,-0.026787589803554057,-0.023197240420875474,-0.019207085849046814,-0.014669747651999084,-0.009774668972566103,-0.004953039058729923,-0.0004370041987862838,0.0032035133817275904,0.005092922382385812,0.005594557790388819,0.006486601233366749,0.00896328448167234,0.01240271684717948,0.015390986542706962,0.01733210412928064,0.01860218704584705,0.01957781957431428,0.0200774221540454,0.01975626020363899,0.018801265707986653,0.017683349136221008,0.016469783415122403,0
0.0003091199883380802,0.0029112209572968555,0.0052505005030567525,0.005888434200461402,0.004892429100917906,0.003710060448773033,0.0039787315117501745,0.006256887605548443,0.009431032024553566,0.011564671467975924,0.011531347171671879,0.0097075836718864,0.00727084671915923,0.005304173104534575,0.004291789952827857,0.0037794633426130996,0.0027998329768259295,0.0008154739863100783,-0.0023505444447936095,-0.007127112917913538,-0.01382530722272317,-0.022024298598577338,-0.03093094162747372,-0.03996823238917423,-0.04869277872316486,-0.056585641438128914,-0.06317813384677869,-0.0681936640608017,-0.07179917632789265,-0.07460493115549723,-0.07710655786118371,-0.07970944640912919,-0.08295539282094776,-0.08696794403779345,-0.09135692819214525,-0.09595823136148346,-0.10112730541361646,-0.10746727010866915,-0.11567366569087717,-0.1255767667687072,-0.13371058617996584,-0.13191305758261043,-0.10920552753676861,-0.05613340983243515,0.030401666161700105,0.14483314086640722,0.2756869861664248,0.4102257912115063,0.5347137119294285,0.6301905569947321,0.6705396332443229,0.6291367145275221,0.493822603830659,0.2817576824040002,0.04159497831862116,-0.16365595659276513,-0.2856564883296194,-0.31305599536048095,-0.27160619818327847,-0.2039906114256026,-0.14577831611213887,-0.11253432436378329,-0.10196239457204732,-0.10406551886349852,-0.10951214694577091,-0.11272790689426519,-0.11170950533008372,-0.10705995362501158,-0.10118953618064296,-0.09658719694834407,-0.09369643600909253,-0.09132278165532828,-0.0888869424312221,-0.08684537554177886,-0.08526458685875178,-0.08350141040833887,-0.08124114271401099,-0.07869655364877697,-0.07573522228005576,-0.07159968522279613,-0.06574314203684133,-0.058513135711280403,-0.05074954420286035,-0.04317365252743348,-0.03636663747274258,-0.03061429336922157,-0.025285102661506582,-0.0189673264783929,-0.010711766234690806,-0.0006955594156376633,0.010455466395256057,0.02221366002112317,0.03400548472212615,0.04548505295699566,0.056888285313760674,0.06864749607678328,0.08086713003951909,0.09308548329628356,0.10445042687621306,0.11439617665466596,0.12294943387381943,0.13025043842843748,0.1363285847983534,0.14116125122767623,0.14438139413199397,0.14552667961693028,0.14463857389185375,0.1417347248664911,0.1361974605612949,0.12725539227712512,0.11447094290746787,0.09791722789384355,0.0780388101101437,0.055208900904057306,0.030272147137182535,0.005304689818864776,-0.017229397327488925,-0.035869914410883066,-0.05055249384483823,-0.061983948929153286,-0.07087012814501227,-0.0777677401121855,-0.08309567751401092,-0.08691305781978613,-0.0890960101367952,-0.08965814624091473,-0.08858528338932234,-0.08592008529937159,-0.08206985373810458,-0.07743523284795843,-0.0721780904392435,-0.06679383151160706,-0.06206792472321907,-0.058176532972709846,-0.05474122763502566,-0.05149853385282992,-0.04791479504488789,-0.0431734113467664,-0.037466532027515424,-0.031896770231996774,-0.026781714423269612,-0.021567158734042743,-0.01642928785965747,-0.012574270289360461,-0.010584127230522258,-0.009262898588714076,-0.006878072395502368,-0.0033042328647432378,0.00011547630791577078,0.002630781813887992,0.004864777601360648,0.007661360501851936,0.010847987953922065,0.013485177301176099,0.015103241375707677,0.016029955737333703,0.016724080441485253,0.017382897924950798,0.018033325206537946,0.018680871595959644,0.01931257975824245,0.019755283042924583,0
0.0021427783063726344,0.00252873274193409,0.003366409948855549,0.004099393001920649,0.004808878326247094,0.00584393118403054,0.007045173286011225,0.00789656114295532,0.008171972732423032,0.00815664108630466,0.008042458428863974,0.007740384645811437,0.007509537784514329,0.0077776842695471025,0.008428515881283474,0.008681120483487636,0.007369940606277081,0.003580379408812163,-0.002680406962231278,-0.010562448670550676,-0.01912472310087265,-0.027775775862464627,-0.03593142961871712,-0.042765828435421996,-0.047809499842616454,-0.05153855140649515,-0.05502139380605591,-0.059248080961227426,-0.06464588322423362,-0.07068105071902646,-0.07629917840579618,-0.08105751170059473,-0.08532514475154933,-0.08951896185591993,-0.0936323569848825,-0.09736994466484392,-0.10069452407914724,-0.10459892181953324,-0.11120855933994223,-0.12185685846947182,-0.13374922361377103,-0.13828998198739664,-0.12301261001293763,-0.07644882141287286,0.006199815643492566,0.1197567601257443,0.2510261992564025,0.385180459449079,0.5096692922807903,0.6102031439324334,0.6643734838253949,0.6441874206615523,0.5314171815261881,0.3355616574969701,0.09869209242046446,-0.11836098704332182,-0.2620393355001527,-0.3106622989276867,-0.2815795360359066,-0.21609028299848668,-0.1544490040012218,-0.11786757346315922,-0.10608010806359072,-0.10745954944255177,-0.11106815160510083,-0.11203505800875013,-0.1102687205893141,-0.10716524758357887,-0.10382300231273281,-0.10102263791915696,-0.09916354738449756,-0.09796827055055002,-0.0966771530927003,-0.09447553174252271,-0.09092019494332647,-0.08621998490280905,-0.08127604165048513,-0.07707122718760293,-0.07360860570108248,-0.0700144166163974,-0.0656568249565381,-0.06036548221586859,-0.054019309769369125,-0.04675159512292435,-0.039182257744331345,-0.03213881757148807,-0.02612782076035204,-0.020752863843146285,-0.014880036937884481,-0.007461969567110196,0.0021348892926598036,0.013989224464143166,0.027326603151786984,0.040842819765072196,0.05359797595211787,0.0656282385592124,0.07764536122021273,0.09014511359365163,0.10281639900194676,0.11463880685506524,0.1245877971032176,0.13232605776005338,0.13827814147261458,0.14306529657796446,0.14675724222181957,0.1487893692229876,0.14851778404772298,0.14568115622257286,0.1402766339607258,0.1319013490491079,0.11982514307237557,0.10385303460425045,0.0846384092515757,0.06339008262614722,0.04121494633970784,0.0188534225355411,-0.0027183032434972727,-0.022284096589571253,-0.03911933272402554,-0.05311672839223126,-0.0643912792378749,-0.07304523992497157,-0.07921486146111872,-0.08321881462795933,-0.08545527174267721,-0.08619623134319711,-0.08593036282903635,-0.08544656219943096,-0.08478153290020642,-0.0830326201659598,-0.07975355441164132,-0.0752980113612302,-0.06999062715364647,-0.06407606173319326,-0.057985953624738816,-0.052227309214400226,-0.04735009150101349,-0.04370971758440413,-0.04090068186859108,-0.037963058337722365,-0.03430079315261474,-0.02980860091288825,-0.024555735891561466,-0.01908928749552669,-0.01436629258946027,-0.010977325102095054,-0.009002136712899846,-0.008170366354981536,-0.0074753788767613315,-0.005652386284000339,-0.0026237260366376598,0.0007429077502106515,0.004168165445480177,0.007907408023915286,0.011662536774417276,0.014339985466004077,0.014939720402945295,0.013863329300449086,0.012767047704804364,0.012984253852744926,0.014661250786890179,0.016916392781741132,0
0.0048092281124825385,0.005147324680939208,0.005421378939260307,0.005451332159626306,0.004781136991010929,0.003737737805540416,0.003605427490000191,0.005151231436336228,0.007613739227746821,0.009571516835209942,0.01041293874865374,0.01051552631966809,0.01043643068138725,0.010436805468381237,0.010452140980563556,0.010088140556998798,0.00874581353822058,0.005872497700499156,0.0010204487730962155,-0.005940566587867248,-0.014464261648352062,-0.02353582545680558,-0.03209402258372136,-0.0393408724320436,-0.045337314531806824,-0.05098431610611622,-0.05677770585869587,-0.062310023295585985,-0.06727628184224403,-0.0719373085162815,-0.0764830405080026,-0.08060454768533262,-0.08394009483473448,-0.08685352620909174,-0.09018490306754029,-0.09412282822601356,-0.09810701323805592,-0.10202057595670416,-0.10714576126079603,-0.11538776238475655,-0.12593181115836527,-0.13144872178220765,-0.11851817272326486,-0.07379654876726553,0.00816308233939739,0.12153918032551622,0.25270389086425527,0.3864451493388819,0.5089629544090496,0.6054573591567586,0.6555410341054335,0.6339502295999451,0.5222461347578523,0.3266007777686553,0.08650340024966884,-0.13671624519848696,-0.2870543467630744,-0.33997895392052857,-0.3107798902138829,-0.24068067474241683,-0.17151577503031926,-0.1263911278319508,-0.10687732737508585,-0.1030158044085767,-0.10460732692814659,-0.10582214492447956,-0.10433357591968162,-0.10025898580728253,-0.09547803348615597,-0.09188458293554994,-0.09002656101239931,-0.08910765627912387,-0.08795240522994284,-0.08614086135523889,-0.08392340172906158,-0.08120606848866556,-0.07738523595534988,-0.07236875424565696,-0.06705122429851727,-0.06230785460125059,-0.058200514904366875,-0.05435402235450646,-0.05040776385063177,-0.04609847834274452,-0.04144724610510792,-0.036715573933548525,-0.031577368212645195,-0.025007126828461956,-0.016514420673980935,-0.006390192032640267,0.005058714460509631,0.01738971946184869,0.029728738132485596,0.04144031855544905,0.05296088212302196,0.06539476378023773,0.07915671573235415,0.0934668682689585,0.10712774592763868,0.11947730817033157,0.13039388483950992,0.13945069898311307,0.14593606222277852,0.14992856997006188,0.15231803845306902,0.153611895316496,0.1534658642040302,0.15112794219963666,0.14581274027150595,0.13679252921875384,0.12337373530639117,0.10547870192090492,0.08427333593570169,0.06118218771059743,0.03701854532838261,0.012902824762105861,-0.0095030103319051,-0.029092760412472458,-0.04569791978469294,-0.0596692038882379,-0.07146712754502157,-0.08118282991943299,-0.08832669141506055,-0.09254221107813271,-0.09426364316024047,-0.09417654042877678,-0.0924592606954141,-0.08912887673828039,-0.08483984345229648,-0.08071241126747772,-0.07736223814399075,-0.0744705894842909,-0.07142352055660282,-0.06781799236476636,-0.06328393676970362,-0.05753855766228069,-0.05074187874590057,-0.04372144863165751,-0.03754887344497611,-0.03260231818903525,-0.028463920114294914,-0.024652473878569205,-0.02101681479809786,-0.01763105324773493,-0.014564936546001403,-0.011661950803653835,-0.008454029036828585,-0.0045660729177181125,-0.00040519176138665257,0.003077629853732446,0.005464608982291286,0.007095328471691765,0.008385357324871725,0.009506087039897575,0.010627020403675705,0.012166144281677787,0.014487751054528562,0.01722368241253474,0.01943928112416006,0.020574161228555553,0.020596274990659087,0.019638808791568926,0
-0.0010819468518280197,0.00018766495807465597,0.0018951373739552208,0.003649875217885088,0.005178450011999216,0.006041674998478605,0.0057705237870344026,0.004482224909404063,0.0030139534758829023,0.0022123494106486286,0.00232840417543359,0.0033287562594176093,0.005327761763253759,0.008168088190996623,0.010949190661734675,0.012305689169352667,0.01107542913474166,0.0068174110093049654,-1.066748552259935e-05,-0.00819591436548086,-0.01632941845621032,-0.02363618709604006,-0.030428192061897404,-0.03740875632014314,-0.04461325532509794,-0.05156277633733864,-0.05786070453890911,-0.06330206633095997,-0.06802515888131311,-0.07234007263740944,-0.07617608895434323,-0.07927378664031473,-0.08199115667819055,-0.08516122557064994,-0.08904039970468948,-0.09318410437941886,-0.09742975166829515,-0.1025119348443112,-0.10981070655669796,-0.12024274451246564,-0.13167618383341398,-0.13622583259063742,-0.12099523783401342,-0.07332881439913287,0.012309560802282134,0.1304515406915673,0.26707570606862074,0.4064407043524042,0.534709460457854,0.6357507238664007,0.6855122604308639,0.6558994011290249,0.5301812423723999,0.31983299204863985,0.06947952883574762,-0.1569859604045239,-0.3043190937228087,-0.3515322265793764,-0.31774725264262715,-0.2453920305314546,-0.17515841408930977,-0.12933131736678777,-0.10978339094793643,-0.1068697553604034,-0.11002809058092158,-0.11290990078976028,-0.11322080352889845,-0.11105935923259964,-0.10748396068979883,-0.10328362272774003,-0.0986439078198624,-0.0938131236020436,-0.08917959825890412,-0.08477867251133135,-0.08070214603915797,-0.07735662308681691,-0.07459004156813802,-0.0715501071848817,-0.06767784404834204,-0.06303400503703462,-0.05798127047419303,-0.0529718438345021,-0.04803307685293468,-0.04277476688691236,-0.037336775128007406,-0.032238421070059746,-0.027016535146119444,-0.020370238443332328,-0.011859293665950113,-0.002232220329145145,0.007820884666293226,0.018295731926971204,0.029340788436662157,0.040756913826915396,0.052422785110421435,0.06449832601822701,0.07689863645123336,0.08945000889905386,0.10220532899852447,0.11483897832336966,0.1262735935282988,0.1355416701614738,0.14265159678116726,0.14803105296737173,0.1516994672089784,0.15343690179932734,0.1531951850696933,0.15111787711634625,0.14721109328802737,0.14078212154096315,0.1302619645848703,0.11424903570953836,0.09312751025785022,0.06914473254489453,0.044696018849167365,0.021107701022168083,-0.0011381626532266306,-0.02172434287368604,-0.03996531251146758,-0.055093484798734445,-0.06719904587295186,-0.07700702876297323,-0.08464392719742081,-0.08971604458528973,-0.09244670207921182,-0.09372171808065914,-0.09418403065634898,-0.09353212836087421,-0.09083385134835456,-0.08605524345177676,-0.08059093774695085,-0.07576674015653215,-0.07183426314621465,-0.0684830252013766,-0.06536408372559067,-0.062055558611280974,-0.05812631006666614,-0.05344106172390734,-0.04806354135089304,-0.042110779898116,-0.03614541243624766,-0.030939129895224737,-0.02644670964121261,-0.021942516210949788,-0.017235129006246772,-0.012705617880589546,-0.008442465191507598,-0.004373996919448892,-0.0005647085209155543,0.003077653049997374,0.006431977843079353,0.008936794940090208,0.010510002296620915,0.011964907081246309,0.014078951311785291,0.01658650402886328,0.01851617390141385,0.01943224949609971,0.01973510576349156,0.019911292790388536,0.019976463860031324,0.019465953891207866,0
0.0009215036566903756,0.0027091587728958473,0.0041085734135228175,0.004939876018904924,0.005531486610591423,0.005950402955420892,0.005803189420249237,0.005234262671751629,0.005068885070998838,0.005681385489188977,0.006563953563649934,0.006969909647034147,0.006702328116309939,0.006355497173163538,0.006535430714661001,0.0069801501626552565,0.0065968729123466715,0.004290104444760059,-8.685394746192903e-05,-0.005979139308443841,-0.013044197205038787,-0.021060932100629048,-0.02951861064777531,-0.037731855743573094,-0.04517037540435257,-0.0517369870679156,-0.05752216685989688,-0.06246960424470033,-0.06668821871995932,-0.07060743150182315,-0.07458955083359206,-0.07873196107997468,-0.08296395637550083,-0.0871288613523099,-0.0910399570033998,-0.09466999722681638,-0.09852435520560576,-0.10375729494889294,-0.11149466356870699,-0.12167241394161657,-0.13178368450783376,-0.13545786246251923,-0.12203119217491805,-0.07954735280645411,-0.0012646424038048045,0.10919675813701527,0.2394285086864484,0.3750570951866173,0.5035836725332477,0.6101380287936488,0.6714027821060015,0.6585746727716622,0.5517110224672125,0.3567515637058767,0.1129643072178261,-0.11740111513606981,-0.2757683190280581,-0.33512127651206797,-0.3095095831146967,-0.23997383435312836,-0.16949214317477718,-0.12332302175757227,-0.10423628306053237,-0.10167848674825317,-0.10435630546828295,-0.10623496001889397,-0.10585067337977076,-0.1038469498203748,-0.10102553857463686,-0.09760194043162329,-0.09371700709153459,-0.08975334764616655,-0.08587201460548109,-0.08171028351097422,-0.07684748812363124,-0.07160279001397168,-0.06691854601355775,-0.06343596421825527,-0.06129670784087862,-0.06031297511922052,-0.059527425963164536,-0.05748248828398174,-0.05344357719892125,-0.04748771513136596,-0.04004539934073664,-0.0322919966590978,-0.0256433957805414,-0.020455663777163055,-0.016095981413808202,-0.011650700750010958,-0.005920645102269525,0.002307078272868187,0.013075312757829792,0.025113364368426802,0.03739130676294469,0.04966066067192108,0.06158756993010345,0.07297686390744386,0.08438845857118904,0.0962347640463112,0.10803208094765543,0.11902836358724808,0.12875953187306757,0.13713796105606274,0.14424314383041742,0.14968531719882178,0.1526554554084495,0.15273484579602614,0.14980994310589274,0.1433642507913362,0.13265727134180524,0.11740027697085799,0.09782458388413941,0.07453086095515908,0.04891642108076464,0.023162735380583836,-0.0010404866469972789,-0.02313416696213467,-0.042732938894883166,-0.059156410558601415,-0.07215712950846262,-0.08211674906109018,-0.08942245727139082,-0.0941767492187181,-0.0964826708779466,-0.09684656731531509,-0.0961040617980673,-0.09466107838884595,-0.09211212955409173,-0.08807008221813438,-0.0829391561563984,-0.07739444788909712,-0.07155683909183601,-0.0652599410896818,-0.05892181494478754,-0.053280166767304245,-0.04812586093245862,-0.04233913930035382,-0.03555348462680376,-0.028836202611423535,-0.02318721841604647,-0.018377172468555854,-0.013845620404196908,-0.009448624738854779,-0.00509785105067166,-0.0009820213642293303,0.002264994902138129,0.004495826509634539,0.006536558760339333,0.009411142400349466,0.013369523848138613,0.01767733229852781,0.02100155351476636,0.02217083443714079,0.021153365436570752,0.019050774497581024,0.01718561603419152,0.016559330239351508,0.017634243802331598,0.020043521310253172,0.022312726158048378,0.022551839501588723,0
0.0006243137693198614,0.001957916785890048,0.0026365847083812065,0.0032355053774998773,0.004306343510732212,0.005609892742574149,0.006346994257282245,0.006001536643920311,0.005132428605919639,0.005029918257609947,0.006197381420088461,0.007812164193147465,0.008964809206538256,0.009555750954638436,0.009790881929795199,0.009539390076603507,0.008458209851058232,0.006434130202316686,0.0033696849621049686,-0.001252014799674591,-0.007838135771051712,-0.015965132295339385,-0.024644170676023452,-0.03294220190769989,-0.04035437201231041,-0.04703268460736285,-0.053413091186790114,-0.05939980725748238,-0.06433179989538279,-0.06791448538466116,-0.07058408890734127,-0.07284229500306434,-0.07512210332600927,-0.07797896525396193,-0.0816185355094988,-0.08588351192358348,-0.09084162532708141,-0.0969927571300429,-0.10520083275162401,-0.11551465120566773,-0.12418705725293916,-0.12167401143475524,-0.09504915640319758,-0.03472144904257626,0.05905371896901801,0.17561737193625748,0.29979295647127197,0.41827001756600724,0.5203387812711604,0.5922590994603479,0.6121785181902009,0.5555040080300205,0.41147020206564083,0.198741166996508,-0.03365967062179441,-0.2241935994359984,-0.3272972662318691,-0.3351629464579313,-0.27738920606647943,-0.19962603229271578,-0.13818484551754684,-0.10684588063435348,-0.0998748172464823,-0.10417972861225676,-0.10964966394327733,-0.11196913108692128,-0.11049806583066718,-0.10587699836912369,-0.0991834183555462,-0.09203537576043222,-0.08622881384276941,-0.08266855450609975,-0.08090148940362875,-0.07981469254044966,-0.0784182611398627,-0.07612953065977739,-0.07285600871320756,-0.0687102843586737,-0.06381590075717408,-0.05872329963553539,-0.054188733900823245,-0.05011580258843348,-0.04563210815767597,-0.04032904651823374,-0.03458566897081089,-0.028723890982062787,-0.022312523561806116,-0.014342659955115307,-0.004228699118124025,0.007422870949785601,0.01926500142962046,0.03040496280301261,0.04122273859686817,0.052873796012501154,0.06597111936359523,0.08012710412451235,0.09440135727802415,0.10779010080958902,0.11977850808752952,0.13048857508008257,0.14010658281559205,0.148577248414932,0.15560975289565523,0.1605660745638655,0.16285163108161385,0.16239398913102093,0.1596143561422571,0.15502936729261133,0.14820681673695227,0.13741908538761563,0.12110163321079902,0.09922048481389793,0.07351747340821405,0.046895477899643115,0.021742408607092388,-0.001157718010306688,-0.0218041149964214,-0.04004713316112923,-0.05566407312318986,-0.06861433995637009,-0.07908434147435996,-0.0873895537975234,-0.09358467586194097,-0.09727278527511031,-0.098318019954421,-0.09733163652874688,-0.09513884465893166,-0.09241865384952742,-0.08962477744139237,-0.08669689578498684,-0.08321195759251801,-0.07894744806169379,-0.07392609330872588,-0.06830419655270147,-0.0627442008217756,-0.05808264368531163,-0.054094276414738345,-0.04945624978344703,-0.04335119404432694,-0.0365167064469119,-0.030365284049218497,-0.025501728713546022,-0.021550879149712494,-0.017984749158502837,-0.014585884296654706,-0.011380570077407335,-0.008478417894371214,-0.00594685789271635,-0.0036649419425286833,-0.0011951193145376283,0.0019900329785191954,0.00598159638201811,0.010376787117758676,0.014618965062136403,0.01800498526397095,0.01979489643438473,0.019989212819885072,0.01959117213711207,0.019547983464306737,0.019985504971772573,0.020587547614457732,0.020965407037176684,0
0.03847490945532155,0.03739157969856187,0.03674247819661935,0.03575211678361274,0.03449670891061794,0.03357478330992622,0.03322433568944096,0.032941966109899586,0.032168554394153774,0.03107113473804391,0.030431142250648774,0.03100407906649876,0.0328004314885557,0.03487000203276872,0.035814280113695994,0.03448225450638168,0.030334633960833444,0.023444198087700787,0.014520820680002017,0.004801882504059267,-0.004756260533904582,-0.01407816929249114,-0.02321568949759168,-0.03175915332498941,-0.039523523168241856,-0.04685134921958451,-0.05397303888778901,-0.06061607329351311,-0.06643711297323138,-0.07171231848350751,-0.07702147683271132,-0.0823281303554583,-0.0870757789310968,-0.09071218143982696,-0.09291864761531099,-0.09418848619225732,-0.09607432326541589,-0.10045931639708122,-0.10860542869096987,-0.11990236834611642,-0.13008044135399727,-0.13037518947538496,-0.10906488683900588,-0.05548119747602943,0.03433243125698217,0.15376199077037905,0.28798119312531667,0.4205327220904032,0.5361135172233662,0.617133465874327,0.6410217080977296,0.5851959262104895,0.4400313998367315,0.2230739514240275,-0.017989840816086705,-0.22180309128490094,-0.34147466337637844,-0.3655586141710918,-0.31858849228580005,-0.242764168130172,-0.17453133776632745,-0.1311897859290804,-0.11206275323732656,-0.10747598132019172,-0.10746979063271118,-0.10633714631527638,-0.10282021817157128,-0.09824307588450293,-0.09433509681339244,-0.0915668618223618,-0.08908257268363781,-0.08603814749345427,-0.08269769776707311,-0.07989515393451577,-0.07754831397600442,-0.07459233946863361,-0.07053096461784442,-0.06600031830891734,-0.06146995160959793,-0.056548035661774514,-0.05089974934423156,-0.04478550285734241,-0.03860307966853254,-0.0325139584345093,-0.026382355309594305,-0.019773698999142858,-0.012193560946140809,-0.003457521024491879,0.006485982468828193,0.017812621151019205,0.030305022831033222,0.04292882654878812,0.054408228258601726,0.06437852853548483,0.07391302734042626,0.08443322095248096,0.09603162327327554,0.10735896259742773,0.11707504849086792,0.1249021334894461,0.13127848653147586,0.1364966647405141,0.14062361404024598,0.14379867970639756,0.1459269818662906,0.14639491527110063,0.1442833008640558,0.13881625629880207,0.13002499328824588,0.11859146253825771,0.10445139811697608,0.08665969999302,0.06526940793021718,0.04202709925507796,0.018956105244347914,-0.0029002909919148973,-0.023477783993054616,-0.04268459201630518,-0.059702012590289254,-0.07359752278419864,-0.08389892014655181,-0.09053835543311652,-0.0940820924357231,-0.09562842394959276,-0.09610235087050484,-0.09602700601692073,-0.09555642500877794,-0.0944137060300709,-0.09211245658827696,-0.0882032028314911,-0.08260967737867297,-0.07594936162500285,-0.0691136307432119,-0.06261434983886731,-0.056524044398402924,-0.05075264437098437,-0.04523723150532252,-0.03999393071284535,-0.035090424123538126,-0.03055104705393205,-0.02619314324673811,-0.021543441794391736,-0.01623924450539805,-0.010729912517614166,-0.006037796181309906,-0.0026021528571591804,0.00012709971048659,0.0031141666505516193,0.006962726208743561,0.011252722153513877,0.014783193331699888,0.0166497868012802,0.016889986655504764,0.01646353586613586,0.016543794996491244,0.01736538399475087,0.018061914853410306,0.017819215633149938,0.01694051206006964,0.01643270009663224,0.016612206919583546,0.0167245501393537,0
-0.0015179157002353646,-0.0010254006728741773,0.0003425174752543198,0.001973898865644626,0.0032039047159622275,0.0038571030046092173,0.004241240634738347,0.004371321986133492,0.0038297008296001374,0.0029094390685148836,0.0028619737024558082,0.004456209454334825,0.006977334034346391,0.00906596834043561,0.010073613887916643,0.010069336508447595,0.009062329519023393,0.006732817461302441,0.0024412801709319124,-0.004475214803862837,-0.013896906782475658,-0.024448400949530956,-0.03410467563624051,-0.041427170045024296,-0.04631504944798422,-0.049758055093525405,-0.05303530717115725,-0.05714852427617974,-0.06251348388086263,-0.06858506124883924,-0.07416052084807245,-0.07839293850667421,-0.08128132530418562,-0.08343881389168231,-0.08537336434925957,-0.0870703489151635,-0.08900850372131862,-0.09288756569669196,-0.10035342589066193,-0.11135579328832194,-0.12272795953368881,-0.1265688791797534,-0.1109410947456115,-0.0645479308358946,0.01689867799092203,0.1268833331915519,0.25119171681559693,0.37595396210363924,0.49093837061055173,0.5838135288731141,0.6336715420646747,0.6139563291632415,0.5062155429556798,0.3169970911516352,0.08533178381949652,-0.12849258203122332,-0.2699698839152085,-0.316982400574701,-0.28717200860807546,-0.22178892125349936,-0.1601222226794282,-0.12217332633173243,-0.10744449366522635,-0.10539463307538652,-0.10642618964691115,-0.10625781817823324,-0.10465207871101619,-0.10265720986722876,-0.10098194481420047,-0.09964609684640631,-0.09813756016617996,-0.09588273304953158,-0.09285325251534919,-0.0895541212424338,-0.08646001471205891,-0.08373101747954083,-0.08124236253626782,-0.07860891705174433,-0.07536951377449992,-0.07122968701950767,-0.06580015597041221,-0.05860280743397812,-0.049963677869567194,-0.040977688904325446,-0.0325113136764062,-0.025089737767136924,-0.01880213273925402,-0.012914630634007976,-0.006475776128008244,0.001146757630897716,0.010411232860221588,0.021238440573641104,0.0328699629951313,0.044813364914255284,0.05703842300620694,0.06903831129958533,0.07997034197678017,0.089572192649501,0.09818085592728337,0.10630587513263894,0.11422216880571538,0.12172779116407312,0.12841443640255812,0.1339722775169371,0.13835568749748214,0.14162455989394704,0.14319784385371812,0.1417896038084851,0.1365541185911961,0.12768524445664345,0.11563455732965798,0.10053868434159552,0.08276511096321487,0.06316853845405457,0.04262967067876135,0.022007141878338823,0.0020726925057830588,-0.01694477983857953,-0.034944956017801676,-0.05105452134044143,-0.0640072643653868,-0.07333161117976818,-0.07956904332158493,-0.08359711005164114,-0.08600602736033411,-0.08684704626011441,-0.0861287002018918,-0.0844487165648448,-0.08254535853841591,-0.08035709701378009,-0.07702674053769239,-0.07199162467534553,-0.06583545412723896,-0.059868475520852296,-0.054999745117608724,-0.05108490686870945,-0.04754033996825942,-0.04425766168471453,-0.0412095312263204,-0.03791682429110827,-0.03396646771172755,-0.029242073214082568,-0.0237843328746957,-0.01815813534296626,-0.013310855682553442,-0.009640773885195056,-0.006813841594979135,-0.004375215757508336,-0.0019674664286583234,0.0008547095482988945,0.004403867120767745,0.00826450715759466,0.01153295910203191,0.013815674431934133,0.015304175051089016,0.016004346504718582,0.015740074181470186,0.014932580093886849,0.0145302842074898,0.014989503479027645,0.015966042202001905,0.01683374035139592,0
-0.008201031470736017,0.0062551158690963005,0.018626984175091475,0.02891139088315186,0.037161296482337056,0.043651247732960106,0.04888487080663158,0.05303728084814507,0.05573042633064197,0.05669467089324807,0.0567456010647713,0.0574365942346768,0.059511626209722696,0.062491294025280995,0.06519133377382064,0.06589337464036812,0.06300392914181085,0.05582299881979977,0.04470478779570386,0.031154851277440256,0.017212057372835474,0.004412856355681786,-0.006230152073725008,-0.014199213339772643,-0.020044324602543302,-0.025156087581711742,-0.03104414829115059,-0.039128350343241816,-0.050215877940717316,-0.06386964144587207,-0.07903478750560708,-0.09482861882420818,-0.11021517880177105,-0.12383432799662826,-0.13429391704435148,-0.14020648830669935,-0.14063662423376774,-0.13614004628999177,-0.12912113707691653,-0.12204785236447875,-0.11399982529935548,-0.0988898899381248,-0.06733902459227707,-0.010965283830776435,0.0724467962211625,0.17607608359337962,0.28718785303594396,0.3932741403442319,0.4833462679422942,0.5427699316157644,0.5496123810993554,0.4808009863488663,0.32763098302753607,0.11030561149748824,-0.12178554806857958,-0.3088864702369776,-0.40903174432385847,-0.41700977465322897,-0.361480393277578,-0.28395445623947635,-0.21513053285500705,-0.16302482409094182,-0.117572996867647,-0.06475264760539111,0.0019130874463640056,0.07847482731484279,0.15372225458294567,0.21460285415916078,0.2520546760339665,0.26444512282112836,0.25648572041705126,0.23554296761756585,0.20834409801307852,0.17924178574371527,0.1499797747323375,0.12061405540036547,0.09122941959624876,0.06292317414239554,0.03680379552387684,0.012917171083732179,-0.008931113704799702,-0.028001550659361607,-0.04316550329495272,-0.05424942815938051,-0.0619638990382865,-0.06682018480040017,-0.06918863004712866,-0.07011732007040355,-0.0708538137081853,-0.07144050203662264,-0.0705269730529977,-0.0665872770020243,-0.05887533939406532,-0.047572608751804406,-0.03375034132137843,-0.018928719605388698,-0.0040101004630164645,0.011115782920524248,0.026760888223262357,0.0426379150423903,0.05792952897236773,0.0720587372308433,0.08504069286150881,0.09689024125823427,0.10720184311288215,0.11529925171708959,0.12036772547675081,0.12146089046155752,0.11765528349199633,0.10867898729157778,0.09523588720220813,0.07853265536315793,0.05985861474199586,0.04015626844974368,0.019911018752165006,-9.158896559535723e-05,-0.01889513890847069,-0.036587857066825685,-0.053762804537160716,-0.06975338082389297,-0.08281227339240756,-0.09166207184031393,-0.09653763373981926,-0.09918791762474857,-0.10149915487036942,-0.10401967377895167,-0.10606482668043311,-0.10692706275776159,-0.10645254011862267,-0.10453363955339415,-0.100934008818483,-0.09587606921459116,-0.09011472305197027,-0.08407035306825579,-0.07733195327259418,-0.06945827122602734,-0.06083491613192818,-0.05232806687308356,-0.04453565145816558,-0.03760165975317679,-0.03132119871729106,-0.025175565852460658,-0.018606788439951182,-0.011574885821430226,-0.004658869805429969,0.0013542211344941164,0.005871348941514656,0.00873156198246372,0.009988377873972595,0.009778447650409139,0.008874847234004758,0.008553964936870623,0.00915836292186686,0.00946980320214684,0.008099495938621333,0.004787543627643533,-0.00010002949872451108,-0.0063040357296889615,-0.01333814564795374,-0.020399462540278822,-0.0268981785694232,-0.03224400186212805,0
0.0038259248720419704,0.004065869620001294,0.004646815375908083,0.004727247031084734,0.004324836543729287,0.004310445274216478,0.00513532500598339,0.00635556847620727,0.007250679578202058,0.007529303514180043,0.007483396774350098,0.007380996391271363,0.007334231580316698,0.007849804913844762,0.009187415113974568,0.0104363312705601,0.010484522100511129,0.00922007600624896,0.006859271915489832,0.0028803178942792525,-0.0035377050473029974,-0.012233194361127558,-0.02158449209594468,-0.029661506628056392,-0.03582801715637725,-0.040579174817443074,-0.04435612799786314,-0.04741670462167427,-0.050153098484730076,-0.05303976369538299,-0.056630436362225395,-0.061305973067200245,-0.06662569392484202,-0.07140268956420515,-0.07462068717806473,-0.07604306919281117,-0.07646445753636294,-0.07767799280245055,-0.08184097059241748,-0.09047121408605384,-0.10259067586386673,-0.11204741827380801,-0.10716549533826995,-0.0752315410005166,-0.009310151212305507,0.08706316537995092,0.20078161304137135,0.31587090645307475,0.4196245201215538,0.5015930340771841,0.5477920139085487,0.5388816420024631,0.4578482470757958,0.303608476633279,0.10088595387085306,-0.1026213028296315,-0.25455573085743377,-0.3228600652931329,-0.3104730709325075,-0.24934552843823804,-0.17928141237316386,-0.12748744810334126,-0.10098669240428873,-0.09243499465392846,-0.09116624930358647,-0.09044716026851157,-0.08830842393861307,-0.08524250323222175,-0.08223951259169551,-0.08011429112922103,-0.07924197839385419,-0.0791542964897969,-0.07886926490240678,-0.07784836480433331,-0.07605954438716121,-0.0734574826378246,-0.0700398417247885,-0.06595229880442638,-0.061499983563764765,-0.0572947044200706,-0.05381725167974924,-0.050864049477400634,-0.04770023930196575,-0.04352614743610219,-0.03788162153142306,-0.03079255545106567,-0.022702858139636108,-0.014175762693254868,-0.005423949985484641,0.0037576622272830276,0.013471881394065159,0.02343459283247233,0.03364759405303736,0.04474131952023487,0.057112899223946544,0.0703840082968275,0.08368813952489292,0.09609311208750114,0.10713233657701339,0.11688112807067386,0.1252651235909466,0.13180854466739916,0.13625204838516988,0.1391026340436256,0.14140288630707798,0.1436421146064996,0.14484862986994085,0.1431085743928222,0.13698795426257318,0.12632885017206796,0.11183549734524764,0.09417377526193968,0.07396198545703592,0.05254403947551939,0.03157321520473596,0.011654098026161002,-0.007589459714908729,-0.02611842649207985,-0.04280305138876015,-0.05635259582484924,-0.06665649118714284,-0.07462458697020237,-0.08094456762506551,-0.08577247383778956,-0.08911438344741734,-0.09072320518383417,-0.090188284600976,-0.08758328544123399,-0.08363056020084386,-0.07911312394610523,-0.07458856116090876,-0.07048485905631288,-0.06655843831163241,-0.06168739927025686,-0.05520298330257175,-0.04807514211383367,-0.04218178933602084,-0.03843583206039594,-0.035877413794055825,-0.032799784429301156,-0.02868621823314423,-0.02450500539139108,-0.02086241128575845,-0.01710038875299492,-0.012906236565137688,-0.009088028087383994,-0.006103835362690605,-0.0032606555133551686,0.0002389587885306809,0.004004854158610247,0.006632565067073923,0.0072985198942358415,0.0067358099134850295,0.0063187008458211544,0.006643992069329165,0.007528915364136156,0.008950030714663097,0.011125147616665849,0.013699185793477878,0.015659709166193962,0.016179032763470456,0.015066648284270602,0
0.0024182289745109135,0.0018296375268783201,0.001088603204115208,0.0011262714967668398,0.002223530093352859,0.004177296349705408,0.0066168136615393095,0.008922321692513044,0.01046172041130213,0.010878034538467142,0.010122337242824334,0.008791203562784605,0.007933616218576784,0.008047925306717166,0.008715105320698757,0.008957282562949531,0.007573050133177905,0.003677910050885912,-0.0026966966095900036,-0.010696173042753193,-0.019373340836924498,-0.028102985613368357,-0.03624702474643786,-0.042992971181386494,-0.04810717216294323,-0.05254154089950849,-0.057536187095843655,-0.06318086723090298,-0.06857089380325308,-0.07320410405052862,-0.07743908663519058,-0.08179076212390157,-0.08627635169402914,-0.09017834211315144,-0.09243039987029542,-0.09283533627717688,-0.09291083728787486,-0.09514514550208118,-0.10147861574989166,-0.11158670293048331,-0.12062103541385438,-0.11794722736993427,-0.08977016870243885,-0.0261015947909636,0.07281137951211246,0.19661032747772664,0.33066497935609523,0.46069924475464646,0.5711565363953583,0.6404476732083769,0.6420222659149682,0.555448682072518,0.3818459739762471,0.15303180179056772,-0.0748939322751881,-0.244331396208692,-0.3225999325744656,-0.3144956455308392,-0.25408692718489306,-0.18324885931592783,-0.13112707948174507,-0.10586159276990494,-0.10025160757011807,-0.10303143903960163,-0.10623828036061876,-0.1064183124984841,-0.10307015127942484,-0.09739090601901687,-0.09159841255126679,-0.08761307480180336,-0.0854770491670207,-0.08372972307125748,-0.08124673502527816,-0.07778958030962652,-0.07350388272443213,-0.06886796944386457,-0.06437709783918952,-0.06002188528784274,-0.05586137409172425,-0.052501462943343964,-0.050278174863155736,-0.04858650850587073,-0.0460445003265298,-0.0412534986361946,-0.034022836842102055,-0.02537906205310134,-0.0161102998751683,-0.0063374148648657185,0.0037360425816036144,0.013530824740672071,0.02246517416929535,0.030550239211509702,0.03851001450286784,0.04730820511705497,0.057476385600253185,0.06845895550746911,0.07890187835831591,0.08800587384710368,0.0961094437685217,0.10365037696760149,0.11018959411769239,0.11493642742733165,0.11788569845370211,0.12004223057570255,0.12248278688155043,0.1251879081105128,0.1267155498980582,0.12511437375288992,0.11937578864744916,0.10992415288181778,0.09771113151065018,0.08325506542901195,0.06665227755091374,0.04815980681727849,0.02848532738113677,0.008505160204341108,-0.010934680417885093,-0.02886319778359192,-0.04428291396487978,-0.05653233351118041,-0.06566420623461036,-0.07252372146880444,-0.07786710175701235,-0.08170350831632733,-0.0839370563967218,-0.08455690105454142,-0.08336249263742779,-0.08064146131531959,-0.07736075450127758,-0.07420119524557933,-0.07102346239238319,-0.06729976246356609,-0.06276037540361076,-0.05739332699668707,-0.051280486855607904,-0.04502006926392233,-0.03960620182731557,-0.03542189489108612,-0.031908736571427475,-0.02817178654973371,-0.023734465828944742,-0.019052589729451994,-0.01496273384829587,-0.011444784450494726,-0.00777988463222078,-0.00394715647793613,-0.0007782606605826331,0.0012846397172363716,0.002738728628690656,0.004486432764708188,0.007042864274108829,0.009922402278783665,0.012092306192529843,0.013288862021185035,0.01436563808605798,0.01621389430371588,0.01862584617496388,0.020473208247918522,0.02084147010211016,0.019660706589855366,0.01763101858473115,0.015660897287346195,0
0.001367170394795407,0.005160128783873902,0.007782260687982576,0.00815035075175098,0.006882699991719849,0.005630961585669748,0.005790768348856813,0.007346454196305803,0.00888475719933623,0.009298923673594554,0.009008248994500203,0.009076950588326388,0.010087029390976481,0.011808834383424078,0.013051749022190568,0.012247092590891387,0.008544663165825306,0.0022160510582166764,-0.005701440921092156,-0.014053232004718162,-0.021963032450370595,-0.02891981666411443,-0.034901443317483634,-0.04021563825401435,-0.04527167786466252,-0.050533338221574665,-0.0560017025272932,-0.06106388492968426,-0.0653848172438825,-0.0692768655630396,-0.07314898015540659,-0.07715608878255303,-0.08125106156854998,-0.08528356523702928,-0.08907435987891567,-0.09259242438513782,-0.09628650965910351,-0.10118541436428893,-0.1083454295511811,-0.11750566430738135,-0.12464137026024286,-0.12006489632580546,-0.0908616021697122,-0.027766489434810956,0.0687507257030582,0.18848008909125222,0.31723788202392167,0.44183102192929075,0.5485456870845683,0.6178824860524831,0.6245405535672178,0.5476588133267827,0.3860605929519258,0.16776917742836855,-0.05461418349843092,-0.2243012539679756,-0.3068069680888877,-0.30462209658995504,-0.25015319621706905,-0.18390611634086046,-0.13377171901274643,-0.10771353664350622,-0.09995291850580862,-0.10097589085091546,-0.10348692122490649,-0.10382919589772767,-0.10140710160263912,-0.09734952882208804,-0.09294399743406191,-0.08880743675241294,-0.08514759965183175,-0.08230151370266299,-0.08058725726801264,-0.07959425312050677,-0.07823227112711575,-0.07565592286406181,-0.07175998853036648,-0.0670540902225626,-0.06221999059651758,-0.05749302356917868,-0.05243565033903966,-0.04645350796200677,-0.039646773514745166,-0.03294605293654717,-0.0271657423443235,-0.022004896350989768,-0.01628164810814086,-0.009076398240299764,-0.00034564503522695016,0.009227093920740581,0.018943058444081305,0.02870712704508159,0.03851217512314831,0.04810855449179277,0.05781160510373978,0.06841646291670506,0.07981656124875458,0.09068014033293961,0.09976692269391796,0.1070506035706881,0.11339665047765407,0.11922742153394038,0.12381714872054059,0.1263590675348189,0.12724638075363043,0.1273757449849002,0.12664205826241673,0.12390811873633478,0.11812844638424694,0.10916270051477489,0.09753386889146368,0.0836256635493391,0.06737261614532507,0.04864303567385896,0.027956355011344833,0.006901274932960739,-0.012619648035851683,-0.029576369136916515,-0.043684850690447904,-0.054858287400189644,-0.06338911235472403,-0.06979961217868348,-0.07459707015741378,-0.07841051809521192,-0.08153431403335926,-0.08342176747419289,-0.08329803723188729,-0.08111801808567456,-0.07756257504374207,-0.07319540288765523,-0.06819598986837894,-0.06309428169972864,-0.05886576736690342,-0.05592499602408624,-0.05362681332693637,-0.05068960392437037,-0.04612650009742649,-0.04024032579432629,-0.03414234836846944,-0.02836503200442685,-0.022887253691264004,-0.017642644055995495,-0.012441690823775109,-0.007547521920311329,-0.004039308766250617,-0.0025719393304101407,-0.002202931118160948,-0.0010798558093733333,0.0017742233663184618,0.005623611433672994,0.009010479899173996,0.011132427258751177,0.01190798710391181,0.011512603653024523,0.010593993745745947,0.010115591048341617,0.010442895918008085,0.011184303659578603,0.011883756748403548,0.012405182428154433,0.012832798083623347,0.013246577047167368,0
0.0037321801401781303,0.004507676197627593,0.00458242888494714,0.003573311701617371,0.0018967289896861294,0.0005340039060580132,0.000627314954622616,0.0027388912092034612,0.006240560571436347,0.009615062227326231,0.011340973944357393,0.010829053626882098,0.008825006759220762,0.006766024745428969,0.005598044706869031,0.0050491277166646855,0.00414240386080526,0.0022907520875617283,-0.0007157663155745665,-0.005340695623388453,-0.011946607733564672,-0.0201157519155861,-0.02885161749474692,-0.037094656312729055,-0.044082742097082954,-0.04988958048170538,-0.05524240780574592,-0.06017147909818013,-0.0638784593467163,-0.06642488943574136,-0.06902729155554133,-0.07248957243258759,-0.07660806781759277,-0.08088048062035942,-0.08497141276961415,-0.08868986464337258,-0.09202954483302228,-0.0954987609781254,-0.10031034950154205,-0.10728337389877834,-0.11411801569241489,-0.1132582186743432,-0.09303139451406929,-0.04264152665759174,0.04104076304224233,0.15048263990992183,0.2720895319819421,0.3927981233907429,0.5006348849722907,0.5798716592980412,0.6078944051853591,0.5606558824430152,0.42761030575929304,0.2264767437100458,0.004191896950398703,-0.18055993385805091,-0.28460652709428047,-0.3001965555447603,-0.2538790346896982,-0.18679265653214316,-0.13193775115031892,-0.10249246446371738,-0.09438579043239005,-0.0965525770693472,-0.09988129545261176,-0.10043127344452739,-0.09838738284281603,-0.09553768870197578,-0.092892789969226,-0.09027627915660003,-0.08770703643909948,-0.08573591698076101,-0.08432978567111793,-0.08274408203979218,-0.0805914055145846,-0.07805581370518679,-0.07513576670190848,-0.07150429281680573,-0.06713327745915722,-0.06245456227081085,-0.05789259623012646,-0.05358361951300273,-0.04937057893330485,-0.04481084754444969,-0.03941383315337931,-0.03302295359359012,-0.025650182030648574,-0.01717400069700967,-0.0077012521875317284,0.002186351776103549,0.01181598954214235,0.020991252505568568,0.03023762925510293,0.040301536219448784,0.051670705949328245,0.0644809009268558,0.07812533306250102,0.09133970491268209,0.10320426282500644,0.1134799107041932,0.12191453602632307,0.12826265929186567,0.1329160247098371,0.13628294330897883,0.1380105273999016,0.13781235338734552,0.1359816361900203,0.1324358008914178,0.1264440842424842,0.11747764498275537,0.10534491507837944,0.08981361181010253,0.07097891320741813,0.049804425386612325,0.028024084692930076,0.007413808933428412,-0.011099939656062104,-0.027393270328264177,-0.0412612533015419,-0.052482784076906985,-0.06162406420445459,-0.06950894523809405,-0.07608749719788958,-0.08073322629510858,-0.08323682099863129,-0.08389982583452375,-0.08302161285609655,-0.08094473071983463,-0.0781421351425212,-0.07470629253491719,-0.070624686049492,-0.0664030671333757,-0.062333241138099245,-0.05798141365835835,-0.05305887856196846,-0.047871282621223324,-0.04281772052152728,-0.03805461517338218,-0.03356791968134572,-0.02931415644223307,-0.02529732104782606,-0.021570017984648224,-0.018151500457372138,-0.014866463092872404,-0.011254873128970142,-0.0069495136816629145,-0.0023394687388998605,0.001670733380597554,0.004678534445383655,0.006870699022374031,0.008255882464241996,0.008664102781821975,0.00851268666706527,0.008717365645392435,0.009676590908742927,0.011040416514304464,0.01238906153866125,0.013606973886295391,0.014727264213411476,0.015636297679639685,0.015937231487691966,0.015335680288247373,0
0.0011029679247264482,0.0025000273065321306,0.003321219408540363,0.0031116189245479348,0.002286302653747107,0.0016398892078574152,0.001275913880616381,0.0009144927511039727,0.001039056531051107,0.002465939066265636,0.00504347342812257,0.007666789642208622,0.009320531186871614,0.009732994288317103,0.009041990360109067,0.0073110600405794915,0.004731827436340786,0.0016437462313080883,-0.001983159049190574,-0.006546691320871971,-0.012244660306223926,-0.018959523137217667,-0.02639023678704486,-0.03395421697001785,-0.041076194580774744,-0.04747151552744315,-0.05302323457391667,-0.057864178903096856,-0.062232655347505515,-0.06602522522401287,-0.0691764897406952,-0.07257787510881236,-0.07751760793403596,-0.08378269182259823,-0.08950964051666364,-0.09327797310021613,-0.0955098568972344,-0.09784070682298307,-0.10197057495945035,-0.10907692932102767,-0.11854636366991966,-0.12541817186115362,-0.1189135799535779,-0.08537596316453391,-0.015443276304144368,0.08989379264726456,0.21943088245924838,0.35744650624797697,0.48858162113013176,0.5963314409713554,0.6584242872961301,0.6484493509553002,0.5479187118822909,0.3617406514028453,0.1252052201981199,-0.1044932388165666,-0.27079253414368853,-0.3432458489261093,-0.329327387748802,-0.26481214420015015,-0.19147514650173325,-0.13748787410013075,-0.11042074911531292,-0.10315676293143218,-0.10455224136811009,-0.10641837526079809,-0.10533062028981621,-0.1013131741851897,-0.09561606311339209,-0.08964341499584849,-0.08470054028543786,-0.08152784989175225,-0.08003553087701272,-0.07933716446235198,-0.07820063720977564,-0.07586037142267228,-0.07226028607497943,-0.06769565448815121,-0.06234626261345826,-0.05623735682732596,-0.04986173200684497,-0.044152691459555374,-0.03948966409453754,-0.035343246013912005,-0.030807666652201707,-0.02522530127716381,-0.01863766549933591,-0.011575227521878301,-0.004312944525073794,0.0034563472348039977,0.012147011026141118,0.021596939815910408,0.03134464298330274,0.041344874188091726,0.0515619847478906,0.06154512917501935,0.07109132719650188,0.08046988394111843,0.08980224186028304,0.09891947232614509,0.10767608751633802,0.11562189292486874,0.12167036445356895,0.12491941753281738,0.1254480065515427,0.12414120547636226,0.12212606022723813,0.11999722772549272,0.11735823540764855,0.11321980440497942,0.10640923298191265,0.09561743253043663,0.0799582601564892,0.06003348760213593,0.038192325108598414,0.017155222967490863,-0.001788976161625419,-0.01890265773275166,-0.03443889519539102,-0.04782939741467351,-0.05868217290052068,-0.06735879023049703,-0.07412915405987,-0.07886550565928886,-0.08173317922821302,-0.08330135517104312,-0.08370878684872812,-0.08248409256837999,-0.07955475128554866,-0.07556233618335771,-0.07128125032070402,-0.06731714949679118,-0.06367192399117616,-0.05971813935642791,-0.055154467327150944,-0.05036816066374882,-0.045796853112358656,-0.04142391115188933,-0.03677958226859909,-0.03148378920827891,-0.02598671858178151,-0.021260769283720095,-0.017555520610780466,-0.014079357944908801,-0.010067548038793882,-0.005782025645171005,-0.0020199422906159743,0.0012346171591239314,0.004743093747390483,0.008591233029075484,0.011853570702286225,0.013599405637999443,0.013585876357556833,0.012393151435013034,0.011273053660439077,0.011435716878675176,0.013046396397101883,0.015129392595194321,0.016743071130549483,0.017661369577442798,0.017828728766428343,0.017134479623037456,0
0.0023804496709959513,0.0025677190659673414,0.003176695867513771,0.0035960424384042858,0.003918346870891898,0.004727861731120584,0.006352201629546595,0.008481281962946046,0.010029685454490709,0.009919003387795857,0.008152209746487631,0.005683879907636876,0.00374139914461343,0.00330951735804497,0.004319679889841118,0.005358099101070247,0.0048572791819114945,0.0021909476654775797,-0.002533804233406544,-0.008688544108494647,-0.015279466205626847,-0.021934517852032206,-0.029189299828403813,-0.037329514644083336,-0.045768030734076585,-0.05369974458933071,-0.060702367219413196,-0.06638205779719658,-0.07017332752190704,-0.07217372214981968,-0.07342899442397127,-0.07514829063797841,-0.07802958527285847,-0.08194858099101103,-0.08618812727425938,-0.09011318849771942,-0.09364422584079751,-0.09748761225470537,-0.10293077687704227,-0.1106900596762101,-0.11892194357078376,-0.1208903083362611,-0.10442355294589914,-0.0563619440793598,0.029623519966518963,0.148241467087721,0.28489361585787004,0.4224709051995903,0.54450571647775,0.631383942600478,0.657939553722334,0.6008988435579999,0.4533869838905408,0.23654350381727318,-0.0007136142326704996,-0.19813854989465665,-0.3111624815981384,-0.33113007877452083,-0.2844724224543891,-0.21340210544735283,-0.15290934934802222,-0.11817190106160269,-0.10637718758171702,-0.10645571686374132,-0.10828609113759054,-0.10718410831591108,-0.10331835515450166,-0.09853496153991821,-0.09403493307928151,-0.09005150151025251,-0.08640714397991872,-0.08292976348473395,-0.07956314566514626,-0.07634611633219607,-0.07338377940595908,-0.07077552263993601,-0.06839598582961853,-0.06560002679232989,-0.061387937423626054,-0.0553939255278911,-0.048668234695372285,-0.04290081601263303,-0.03872479352808913,-0.03527019199226829,-0.03140725803361945,-0.02659986845646735,-0.020698591880246187,-0.013777176465021702,-0.005889963027080591,0.0031414287287304266,0.01328558007489321,0.023976397060729873,0.03437927111201071,0.04390603174928007,0.052801866765698605,0.062123047972628874,0.07274899949275787,0.08436591133678568,0.09568859970184182,0.10570058726314491,0.11408391263145205,0.12052557587386631,0.12477253078448117,0.12738997846533967,0.1292198697638438,0.13024137594708435,0.12979098299263503,0.12739300924925231,0.12279413665262731,0.11543239915858991,0.10436475965308012,0.08914968355028982,0.07068350346736996,0.05070942988135516,0.030576654950189824,0.010813237747489546,-0.008234899592344386,-0.025844132079633993,-0.04117852694323633,-0.05377733528324344,-0.06359799490685994,-0.07086629476760195,-0.07602018999906665,-0.0794721200522531,-0.08128520306310856,-0.08152133526595608,-0.08079700511854987,-0.07982474915760328,-0.07850564731013822,-0.07601188651979204,-0.07197101828103544,-0.06726596432658968,-0.06315191195979027,-0.059798616224444094,-0.05643333000278326,-0.05265167598384788,-0.04863325537586068,-0.044194504673662864,-0.03851968414062966,-0.031202305618194093,-0.023226453243535363,-0.016408471023658073,-0.011832462734817202,-0.009118752061039695,-0.007084727530287964,-0.0046350389827202135,-0.0012951281397059929,0.0024165586415649688,0.005451403122195591,0.007366972364938409,0.008540929315554637,0.009461933260010146,0.010329726585641083,0.011131806401082732,0.011784240158186151,0.01221061426651785,0.012426252252989689,0.012675575210807814,0.013452227691896686,0.014977515608262621,0.01643511417049774,0.01652273959328039,0
0.0010361912731855364,0.0020489706135081174,0.003437797516401785,0.004965341395844435,0.006821248604367079,0.008932865934342992,0.010409401975558655,0.010399751371641414,0.009321274726710495,0.008401214803897352,0.008384404045459665,0.009406685713713284,0.011427242367580375,0.013961617357279701,0.016003475614022173,0.016520424271863843,0.01457507729904572,0.009638744379747969,0.0022825325355967457,-0.006216239803951919,-0.014829862767579385,-0.022765322074127778,-0.02919968547233584,-0.03389443307257985,-0.037811356819226635,-0.042375775537881445,-0.048153291901639236,-0.05463430748828827,-0.06092106279150874,-0.06633405794297448,-0.07070437460771564,-0.07410890614265622,-0.07661759688995547,-0.07870523506107967,-0.08118166000679505,-0.08439776803220846,-0.08830548163468592,-0.09317858243314252,-0.09966900608916798,-0.1081255946315741,-0.11678975106708037,-0.11925909935595114,-0.10448640959229412,-0.06132207509873604,0.015002513660108633,0.11909486595165529,0.23781733033826147,0.35738722254355204,0.46681645801893157,0.5530999122267087,0.5956299469101702,0.5695855758203179,0.45971864989340705,0.275953548784853,0.05793619171205005,-0.13791338972643588,-0.263449101657986,-0.30115363117947214,-0.26898480193684116,-0.2052903958937565,-0.14613160358692054,-0.11010859874837556,-0.09688083982748674,-0.09606381172764195,-0.09793354199711651,-0.09832585969053449,-0.0972566107340446,-0.09585637736220255,-0.09467490002225601,-0.09343297276818684,-0.09159916773544358,-0.08909627624993352,-0.08619712851587102,-0.08286949359634987,-0.07890545257067635,-0.07473732240636247,-0.07130273669356135,-0.06888630046916377,-0.06674333584296514,-0.06395347809420215,-0.060195846679155986,-0.05552252157259636,-0.049901589101866525,-0.04344989792473006,-0.036579529107334106,-0.029645580466589,-0.022794474171828463,-0.01605636126082546,-0.009276697028029983,-0.0018649810789708125,0.007135878483077869,0.018305149570504754,0.031265405242424826,0.04503862149626767,0.05857110810603531,0.07096365422742573,0.08192827153694797,0.09194609142039825,0.10142445149352965,0.1100753826410883,0.11760296976031794,0.1243733085999742,0.13077004181235669,0.13640641116755065,0.14049597977305267,0.14257040609078145,0.14248531866372963,0.13997225312747136,0.13448482515928845,0.12543527115558556,0.11241642884907925,0.09560842804207512,0.0760480224266558,0.05511855526243355,0.03414009103402618,0.01423380816605646,-0.004095406804947372,-0.021033537771616827,-0.03695437693678977,-0.05164010546602754,-0.06404985987537537,-0.07331472884435578,-0.07954320618433867,-0.08346952212151516,-0.0857340201917478,-0.0864684604379684,-0.08566557194679772,-0.08372991478123058,-0.08111395882834788,-0.0778576189831385,-0.07387765384929555,-0.06912696217195406,-0.06361894224205845,-0.05792194488322322,-0.05304073966135723,-0.04940255427945562,-0.04651278577869678,-0.04349084874702375,-0.03968268158777839,-0.03510917180197968,-0.030311994922825262,-0.025744330795999103,-0.021531122103872504,-0.0176249274323889,-0.013961890957760716,-0.010513064508824034,-0.007273663987194463,-0.004243671931136428,-0.0014205191857923332,0.0011989300062122035,0.003617455570875767,0.005846683476920458,0.007924994359385196,0.009918028623186761,0.011850658218155072,0.01355264086807143,0.01456976035137979,0.014547932205051808,0.013913413686767566,0.013640597571120973,0.014186162984551998,0.015258305841588618,0
0.002192932617886604,0.0021474258852045612,0.002428875139062066,0.002693936578060443,0.0029387043453212285,0.003748004653490429,0.00529555564450011,0.006808610161788322,0.007333436754690984,0.006663734921631304,0.005412543669780504,0.004486889984911993,0.004561904387868189,0.00565219634385466,0.0071588235438567165,0.00830348456318379,0.008417622059942205,0.00702686570354259,0.003722995281062423,-0.0017478704493283015,-0.009112588278168738,-0.01743434302694121,-0.025314332211763213,-0.03174765775215792,-0.036936386760750076,-0.041741670537797884,-0.04657497204630891,-0.051095082269976576,-0.05486939561179613,-0.05827991099651924,-0.062305458310189764,-0.06728313600500928,-0.07247319949242495,-0.07685126087152906,-0.07988040747706389,-0.08151886215456441,-0.08232820754353282,-0.0841030633448466,-0.0892895322912201,-0.09883598368425178,-0.11037842120921205,-0.11718549103671635,-0.10785156229407677,-0.06914186267728663,0.006999042098524548,0.1170942279452074,0.24650784752728278,0.3762123217921117,0.4894864741798633,0.5723317373112808,0.6083795775490547,0.5775867011119433,0.4656297104908723,0.27860795145896566,0.0512151433567602,-0.16094620917827052,-0.30496441195631885,-0.35613258935751846,-0.3272026682207668,-0.25619518067870517,-0.1833248801715064,-0.1326316377966816,-0.10790033755991986,-0.10059315546572334,-0.10001465807169338,-0.09922690790208293,-0.09620550339436808,-0.09194318472307919,-0.08807692406693646,-0.08565245222500756,-0.08473398663630638,-0.08458321775649207,-0.0840957073084939,-0.08220486817972283,-0.07861705064063268,-0.07426907986291897,-0.07042183355574191,-0.06738190807657878,-0.0647562557520356,-0.062391861174559526,-0.05998717747424975,-0.056563326425138984,-0.0513940512386754,-0.04485757244976311,-0.03785054736074809,-0.030785353702170254,-0.023311711722782145,-0.014848856345184916,-0.005332841317211956,0.004792680529949996,0.015277427792414028,0.02641490176246753,0.03859462841722727,0.051644889186829315,0.06514947455959003,0.07918697404252148,0.09382549055433906,0.10837657553575313,0.12170417060569874,0.1328678319037446,0.14174688727150664,0.14897729590096487,0.15496948932675955,0.1596240242004151,0.16289397439646264,0.16466684610937124,0.16416967327080562,0.16027819663647272,0.1521068682103837,0.13900582514851387,0.12092596671354855,0.09876740764422264,0.0738442062838032,0.04760280813013361,0.021734966634026836,-0.0023749048116634107,-0.024019739789985506,-0.042719933196662896,-0.058193637796244854,-0.07060037216286442,-0.08026317433428426,-0.08748885732812847,-0.0927182297133633,-0.09636742554496457,-0.0983719166384976,-0.09835024711428456,-0.09636526220609022,-0.09306821889566222,-0.08900682123497018,-0.08440060942729871,-0.0797993554450944,-0.07601467752646997,-0.07302895069901717,-0.06987660730853326,-0.06569569329377409,-0.06032260897189881,-0.054188741593438255,-0.047933839953402266,-0.04198364491967286,-0.0365416765429831,-0.03180675499146123,-0.02782191490411886,-0.024310535975078353,-0.021131187256493426,-0.018250017545337307,-0.014974925725798626,-0.010421706406077442,-0.004797360509125232,0.0005731639916426723,0.004356406931205294,0.0063626938114242065,0.007613685079052955,0.009068819468200642,0.010844336446012848,0.012775565018391798,0.014974929931230237,0.017520073711245338,0.01998068087946908,0.02173785405914456,0.022438070548160563,0.02208745265017593,0.021294503664903312,0
-0.00042106445165418326,0.0006315858137580187,0.00169187759615854,0.003099759004415779,0.00467155968391975,0.005860947446816169,0.006455575813997022,0.006885074273229248,0.0076177498628307375,0.008644348312968132,0.009880082210631726,0.01150693884896602,0.013475051991464286,0.014940003655810913,0.014880603126360062,0.013049324709510285,0.009804568173246752,0.005431020020877901,-0.00036036438080754864,-0.008141412751342248,-0.017531450489238022,-0.027030490481572012,-0.03523665918292139,-0.04146627196160074,-0.045874270948177205,-0.049567879215380674,-0.05378901428501323,-0.05877539758165338,-0.0640889250941171,-0.06961014778884995,-0.07521507690689777,-0.0802064326526229,-0.08385989860984697,-0.08604961639352145,-0.08738529842609795,-0.08887582800739013,-0.09146595624949337,-0.09629226955200533,-0.10473523497727823,-0.11672765677525196,-0.12789795922317043,-0.12837836023404864,-0.10579164687349374,-0.05114318417420943,0.036361673621507606,0.1488311953229495,0.2737251069330806,0.3985913813530053,0.5114242287035249,0.5959457875473055,0.6283121523724653,0.5832313417320566,0.4496311495604734,0.24541154963853196,0.01803035526837661,-0.1730508569420384,-0.2831735453292624,-0.302721502245351,-0.2576928690515717,-0.19061358285921112,-0.13601612256614917,-0.10685612440379583,-0.09778852084490929,-0.09777360818946203,-0.09935441129163373,-0.09976016559772113,-0.09857660551631207,-0.09634760145481448,-0.09388906871711335,-0.09170354589854546,-0.0898525179423361,-0.08812122131204801,-0.08619680855420668,-0.08402852402495288,-0.08196970223520551,-0.08010331436866806,-0.0779621224848785,-0.07533220273727367,-0.07242859591481454,-0.06906147217543306,-0.064404039806329,-0.05792332994490215,-0.05021047707954628,-0.042580223948541024,-0.03589802667601298,-0.029794115641453303,-0.02321766113228821,-0.015752867106479156,-0.007835387164147972,0.0002425403420216101,0.009136975774592247,0.020160054671675736,0.03367998486749312,0.04795712869926991,0.06073609255109277,0.07163026247819962,0.0817343222172229,0.0916020496464829,0.10069493589404455,0.10854409706646978,0.11565970443235873,0.1229109578391703,0.1302786981529173,0.13651346014664809,0.14013031866041023,0.14063296035120346,0.13847055709868272,0.1340902380367903,0.12744208595782905,0.11825107414322907,0.10628644376390589,0.09124292852461824,0.07325845233116185,0.053444040482450716,0.03303425093832171,0.012822048633668204,-0.006516643052310256,-0.02444123705109278,-0.04050941995776111,-0.05424147589714048,-0.06531141289524593,-0.0736599053688683,-0.07947488319678643,-0.08320706173773156,-0.08532936025962064,-0.08591951924284821,-0.08483141619674091,-0.08217252821166997,-0.07831112890007433,-0.07378628555550124,-0.06916134665986136,-0.06463431072630044,-0.05997419893833056,-0.05507320231692002,-0.05037835019405605,-0.04639277022598011,-0.04312352752343728,-0.04031524615105962,-0.037681016086056375,-0.03478703074639346,-0.031217345530891574,-0.027048541077547242,-0.022753603581880742,-0.01851432724407568,-0.0139693737666478,-0.008895140423205343,-0.004119452165502302,-0.0009445531596808526,0.0006295858902671207,0.0019338493711476886,0.0038890488267911243,0.006376475533349942,0.008936422525383134,0.011164235364418908,0.012622081673321177,0.013071313634906071,0.012996517777613306,0.013197505121598688,0.013632969871820349,0.013586832495493957,0.013049868133715056,0.012872513266862909,0
0.0019075569466810254,0.0026304237491888227,0.0025212308760419887,0.001414226468058514,0.00022774428661729597,0.00035273542384297414,0.002489913531907344,0.00598794564080013,0.009288804360996477,0.011024883428363212,0.01105922852057685,0.010502211312564413,0.010389392521506632,0.010730704339954792,0.010819816755270373,0.009900847438085645,0.007574250195189902,0.0037116047847027705,-0.0018667197565668716,-0.00936192181974776,-0.018344354820514865,-0.02740829033141561,-0.035257637843048265,-0.04175097664253891,-0.04729333465929093,-0.05202632312708272,-0.05609119001495148,-0.05988671544234667,-0.06376726520661212,-0.06787268336012889,-0.0721832702586028,-0.07647463890299835,-0.08023048675440808,-0.0829637145035894,-0.08489594186360784,-0.08695740733631833,-0.09020312370730196,-0.09576283029467529,-0.1045671675660687,-0.11569850372256422,-0.12414129115500226,-0.11994970792495357,-0.09099161051291577,-0.028935936289688317,0.06549374375273588,0.1823572369736044,0.30773577950622477,0.428991329604045,0.5341037778881368,0.6058846646538929,0.6193538777272594,0.5505312913310341,0.39407730273722275,0.17638155420007723,-0.04812469645243066,-0.21945120359051987,-0.3012339789107942,-0.2963586712506023,-0.23912487811720745,-0.1721940729363576,-0.12447070985183795,-0.10277493368149554,-0.0989302031876325,-0.101929450951703,-0.10472575522116863,-0.10465746307567766,-0.10181008166632502,-0.09764711717010358,-0.0938388079745986,-0.09122922988400058,-0.08940124908688428,-0.08748516592343282,-0.08547776223671141,-0.08395406794605623,-0.08251293677387546,-0.0798505689004518,-0.07552937581389992,-0.07048046007494926,-0.06586201122925261,-0.06206491118075236,-0.05857803871775233,-0.054691199743582296,-0.050015710323967344,-0.04434877907141692,-0.03765609575865435,-0.029973755999357882,-0.021354622008234632,-0.012330190777097084,-0.003695712158345221,0.00456565500030268,0.013298759251020765,0.023133980398789878,0.03428077980420191,0.04688968235475807,0.06073131219363115,0.0748659782998436,0.08811117812050305,0.0998362465722526,0.11012369818248711,0.11916639393030191,0.1269952559757751,0.13353941133554614,0.1383881767566107,0.14117529217456498,0.14232044908343347,0.14233230118167725,0.14079680938254957,0.13690212921490286,0.130022953882357,0.1194904834692721,0.10485416269855592,0.0864073194906475,0.06507180541521196,0.04228977292862017,0.020013369460323976,-0.00011457534868940245,-0.01767055468374091,-0.03310470844021747,-0.0467728929750089,-0.058776148082726645,-0.06922812274654529,-0.07799242250436614,-0.08456407902363632,-0.0885104753605496,-0.08982889887168935,-0.08907037453698478,-0.08713857898005711,-0.08462668619091335,-0.08152710406876656,-0.07772382231743946,-0.0732327027118769,-0.06814657073398848,-0.0628749141875798,-0.05775551368351771,-0.05233868303129874,-0.0461790316753878,-0.03996409436394926,-0.03488917501018614,-0.031402847935252734,-0.028829479966530812,-0.026067735466578295,-0.022667186077670046,-0.018830277492986266,-0.014579972406591124,-0.009744997495995932,-0.004733508553592589,-0.0004441597670266171,0.002766192404328155,0.005324071956649336,0.007708612106614729,0.009919792233716187,0.01147995759640854,0.01198113930893898,0.011851618377397987,0.012124960864031021,0.013286107767645796,0.01486583376264828,0.01596379808410312,0.015869016386459205,0.014565489290726787,0.012722175283363106,0.011220266085473109,0
0.0029958825186001863,0.003952371542642123,0.004305722812372685,0.003740127195194636,0.0026144968258887177,0.0018681390330166896,0.0020503266567645376,0.0030695986095571445,0.004531401831693559,0.005901480560692561,0.006966523673672547,0.007918904621824199,0.00880060308051767,0.009649343193256263,0.0105760590409886,0.011089614251369413,0.010288246475019358,0.007482911933962825,0.0019798759668017227,-0.006560568776737189,-0.016947194484578168,-0.026803627687369897,-0.03449932792363836,-0.040308643834039024,-0.04562179113546014,-0.05116363946839656,-0.056503507862562856,-0.061216219640752974,-0.06550983996515257,-0.06977903893004264,-0.07426526004707586,-0.0790421179744502,-0.08390499631839032,-0.08813575679628577,-0.09072680160897924,-0.09146572568124545,-0.09173438652088449,-0.09388795619218684,-0.10012101119928846,-0.11117929058113973,-0.1241641576099775,-0.13062921180228804,-0.11735691786983067,-0.07127511159377335,0.013434807614412453,0.13177027975505012,0.27037334558861675,0.41222803731521074,0.539419124001431,0.6325064464791562,0.6684401767527239,0.6237700717952201,0.48736589767076965,0.2750530906609238,0.03262505218749836,-0.17913398095749788,-0.31074687432953896,-0.34606554000505246,-0.3062729108116344,-0.23364032363650072,-0.1668738212684303,-0.12500066378589453,-0.10726522729087508,-0.10341271886704563,-0.10386828264541474,-0.10363735725279663,-0.10140524431934972,-0.09773630306807599,-0.09363532178988604,-0.089698247543784,-0.08619364555034878,-0.08350671212262456,-0.0819889745194387,-0.0812598569856108,-0.08021075150297166,-0.07782989878851541,-0.07369068581983229,-0.06820326096013798,-0.06252401732514287,-0.057507630268358936,-0.05299860115111199,-0.04835645268638761,-0.043317354756331486,-0.038206595937318406,-0.033144412110790854,-0.027606159403836202,-0.021114433607900877,-0.013548904417087889,-0.004958365738813735,0.004233395158807879,0.013516205713697181,0.02299098769252312,0.033025221127249246,0.04365693733595221,0.05489245398011574,0.06700824393302617,0.08001252865848942,0.0929701849767873,0.10450421082441845,0.1139472466921153,0.12157239607373366,0.12774571097414006,0.13204721051250057,0.13380073868559367,0.13359573964473212,0.1331101065325704,0.13295070560784936,0.13178293035237854,0.12774875577235334,0.11966608748331042,0.10715978784730303,0.0905186435053657,0.07053753344065111,0.048530344258608867,0.026160811592693612,0.005105065339839777,-0.013321740684992884,-0.02894156322263426,-0.04266367834493223,-0.05496519562911455,-0.06522907166877823,-0.07297357921193065,-0.078565693487345,-0.08241831324309004,-0.08458070429572892,-0.08506182634790271,-0.08395735006821829,-0.08178283223330987,-0.07950942771529845,-0.0774281747852409,-0.07462372024043268,-0.07024722006622303,-0.06462796980287798,-0.05885211873320344,-0.0538011720370895,-0.04949872091327589,-0.045082205700430346,-0.0399269146804317,-0.03454186020337706,-0.02971437349648627,-0.025591566463169943,-0.021984092505947857,-0.018771497102176883,-0.01573929452414748,-0.012236128477621901,-0.007406227447015521,-0.001307739195450245,0.004489976985212661,0.0081492856297042,0.009290732156553962,0.009224059188485772,0.009554988097220508,0.010646325391080071,0.011597802578187258,0.011686891230056345,0.011591127394831778,0.01266360287578864,0.015003428191889875,0.01738456278219153,0.01897021663710289,0.019809408211358306,0.019935590018408333,0
