-0.0013351644730308374,0.00038458537536191213,0.0025565289319321193,0.004196898722094853,0.00460577644117092,0.003426225913192634,0.0007959683247195341,-0.002500587766066484,-0.005293218693076071,-0.006694813595172074,-0.006318775629938415,-0.004264987988576179,-0.0010324577975167107,0.003221893064713889,0.009020537521779585,0.016325049583931134,0.023290389455409816,0.027025348071541985,0.02548552393253569,0.018536555347868314,0.007826678847808848,-0.004158833362234818,-0.015488844133522342,-0.025595336092951244,-0.03472028445040814,-0.04307313888272808,-0.05076635073000611,-0.05771235416675271,-0.06339301896627753,-0.06741832310461164,-0.07005196222314045,-0.07170160750882298,-0.07253365928925234,-0.07298168987191526,-0.07373409991083252,-0.07497010398850676,-0.07660273229423945,-0.0794244175906077,-0.08541224246745235,-0.09647625670972461,-0.11123668134940304,-0.12077343945401225,-0.10796475380448306,-0.05436533871061583,0.04812442049835962,0.18939774768408285,0.34427493149441735,0.48498195017050927,0.5927175131594975,0.6577848615050887,0.6687439739476042,0.6044157753865871,0.4428232864333794,0.18572852865266895,-0.1212585294793275,-0.3959721012307642,-0.5572849444292146,-0.569470224850043,-0.46075679034058054,-0.30223743890277943,-0.16456488070179465,-0.08409385295641997,-0.05741291640494335,-0.059863157885409427,-0.06842360068403246,-0.07234092020771449,-0.07092012021725766,-0.06744089589133734,-0.06486457572465494,-0.06429416300809367,-0.06552548243932688,-0.06768216922305369,-0.0690108295171996,-0.06754287720772101,-0.06273738580992859,-0.05588929995495019,-0.04920121258349361,-0.044955521916059824,-0.04456251615760198,-0.047264049318373795,-0.050148289731724104,-0.05017921834594632,-0.04611584685876445,-0.03853221556691058,-0.028929638900459805,-0.018976123505016276,-0.00970512330438139,-0.0013077116151160462,0.006493493641548073,0.014298446223862117,0.022861513728792957,0.03316427153601721,0.046448624017607534,0.06306790164141529,0.08149168889574349,0.09908864015455417,0.11381528226507193,0.12519754068461533,0.13384535274505036,0.14036391272844478,0.14493546316899178,0.14755522422290648,0.1483438648061157,0.14758453831735063,0.14523507195035465,0.14051267892829217,0.13261273916478514,0.12148928072227358,0.1075872000152405,0.0919314865523292,0.07620987100956797,0.061504610951258726,0.04735789815758888,0.03245721648563579,0.015851547790746788,-0.002593488737815286,-0.02248951562381388,-0.04292017233898743,-0.062322881565546225,-0.07895252611624468,-0.09148967389604244,-0.09949882804724061,-0.10341303259408147,-0.1038083646998674,-0.1011561063991506,-0.09644612836611657,-0.09120780418580471,-0.08682710028522811,-0.08399275424681286,-0.08215820530292418,-0.07954892214323663,-0.07415108840668458,-0.06498834320727408,-0.05306237262179059,-0.04099498720257005,-0.03114477274277621,-0.024095918447946743,-0.018911323906500757,-0.014396795881806434,-0.009957292065843858,-0.005531668565021788,-0.0011759526361894874,0.0031189385617542455,0.007262218159270929,0.0107318911878705,0.012621907505678187,0.01238941551855672,0.010429566242238338,0.007708801982361731,0.005261094110266401,0.004059729460723593,0.004709125053146967,0.007230239503283188,0.011210954251893852,0.01560342873797552,0.018593116778708875,0.018441275782704922,0.014821285605894016,0.009468446854948472,0.004917049411932331,0.002443962422283138,0.0019747958063865544,0
-0.0005769664011487415,0.0008295698374941744,0.001720996158438356,0.0014140898013665847,3.456189056311328e-05,-0.0015077781463844115,-0.0022851623097313424,-0.0019629847324075882,-0.0005700659460903631,0.0017347961585973703,0.004156906654481316,0.005391268828383439,0.005061115469629103,0.004421424777097635,0.00510957872058276,0.007845580330155885,0.012392079481055132,0.017588973051655805,0.021297413050465355,0.02124186706229539,0.01628792062509953,0.006904870589525734,-0.005353057172569042,-0.018501956801714833,-0.030717271080648464,-0.040937316960590775,-0.04875309087328167,-0.053941419735220084,-0.05685834089718409,-0.05856109844143677,-0.05989587538280705,-0.06138844974165372,-0.06364701824473845,-0.06689809824968397,-0.07069306114924023,-0.07423276496816172,-0.07662848268444826,-0.07759999857795839,-0.07875159858427763,-0.08333832508902322,-0.0930507602806473,-0.103585949884326,-0.10224579013340131,-0.07086971039504703,0.004858748225916898,0.1245397481353387,0.2690578278361816,0.4086528955042155,0.5185324065357685,0.5881377156130876,0.6142714131892802,0.5861764113354797,0.48205865537269094,0.2863601010946465,0.015816388728050572,-0.2695278984485649,-0.48641269211964056,-0.5714119580251003,-0.5168995087030722,-0.37299902253413025,-0.21525110515334644,-0.10243600115907836,-0.05257371335834861,-0.048727888280794586,-0.06287435511994527,-0.07525649293822018,-0.07874441611534716,-0.07448238784395754,-0.0666777436976367,-0.0590741698390433,-0.05366824170581553,-0.050930777002093544,-0.05046175226904778,-0.051538753201501156,-0.05306184165420131,-0.053639052705105994,-0.05251058112203194,-0.049973578994517764,-0.04650808537580831,-0.042104899026343665,-0.036750225827573896,-0.03095578063750496,-0.025695162441993446,-0.021938129927856584,-0.01965421840367447,-0.017295070395945696,-0.012870265931134417,-0.005351392326573837,0.005008544656664301,0.017154563778343138,0.029914472254877086,0.042379426092551464,0.054018799087819855,0.06494306779805271,0.07591072774635843,0.08791577474427086,0.10161009773682207,0.1166014665440319,0.1313870750098853,0.14415785054919888,0.15350609588002323,0.15869583523614103,0.15949485092968163,0.15596855298266696,0.14885904425427812,0.13946920621350753,0.1289494919403652,0.11817754228022431,0.10743419561850955,0.09629248841051975,0.0843793256819887,0.07126346563268462,0.05619498254284807,0.038688895551915264,0.01843349331224407,-0.0045903056368213,-0.02891198755542324,-0.051730128332739246,-0.07070744652327783,-0.08493619971709176,-0.0948555588352659,-0.10176508352101635,-0.10679828647053444,-0.11046019679535804,-0.11294414493409527,-0.11405256010577726,-0.1130526272788738,-0.10901757801209644,-0.10151213020198854,-0.09140892607003039,-0.08063431120214146,-0.07073278088545033,-0.06230783238640655,-0.055470496347732795,-0.04977868160101744,-0.04409029097764833,-0.037269061864085753,-0.029322281517416324,-0.021516028365638526,-0.014808473826763539,-0.008861025181919578,-0.003219207992927511,0.0016885320126931048,0.005162272415496182,0.006924240920550214,0.007253409604632045,0.0068905354397768865,0.006884120375242095,0.00835123156540982,0.011703479205717324,0.015910076623485026,0.01900606010531777,0.01946776067796392,0.017103672122723877,0.012958419304756733,0.00868348598548621,0.005902949091799475,0.00559619529500612,0.0075460155018069654,0.010400003634883293,0.012657387674664962,0.013672878908540988,0
-0.0036129716964352944,-0.00413294662514475,-0.0028140739267162908,0.00010472977119498452,0.003590120124748617,0.006442028745801608,0.007600810861509592,0.006776395030540946,0.004912096723625341,0.003399341047366532,0.0029053375718841885,0.003400610795721193,0.0047389823093897014,0.006648096315327277,0.008905411700148474,0.011953383737751485,0.016574411965681875,0.022241114764915366,0.026269689140360014,0.025642535758069962,0.01927102049201765,0.008011386058877568,-0.00625424091804627,-0.021299427769791907,-0.03531843935598495,-0.04702377235827412,-0.055417861212139,-0.06011373948974458,-0.06143353521751603,-0.06029143887388707,-0.05847059315139677,-0.05844222691927717,-0.061966013244720446,-0.0685073485862624,-0.07540548514739062,-0.0799596338254022,-0.08135381093260084,-0.08110893721720044,-0.08236109969564348,-0.08824179642413435,-0.09896395930815555,-0.10768599890133243,-0.09849457704261726,-0.05161399733035185,0.04442901463972532,0.18215389253100872,0.3358648946258536,0.4745982016858772,0.5768422990058619,0.6341304100166774,0.6404115110507607,0.5802473661484581,0.4329553855134191,0.19441971146926001,-0.1004269213837607,-0.3774576964618111,-0.5544891590763675,-0.5859237153075948,-0.4882344700148309,-0.327181161443749,-0.17741263475736022,-0.0840190510705728,-0.0502440905408219,-0.052980134829733586,-0.06692169294871025,-0.0776870241858307,-0.08120489136819743,-0.07849333198761291,-0.07207737049947095,-0.06439086043362707,-0.05726812082751774,-0.052076738872128076,-0.04979933631587298,-0.05070284088496424,-0.05384230574438732,-0.05701060441355795,-0.05772528375167296,-0.05470660133978107,-0.04867686590523894,-0.04160829655944111,-0.035054186110612076,-0.02972883900114171,-0.026209192204318665,-0.024680196606536225,-0.024021925661683825,-0.021962704714155127,-0.016409207355505745,-0.006582205407738023,0.006970924723422511,0.02275050979067639,0.03857472111213604,0.05246987418745742,0.06378575125499339,0.07352273222470143,0.08359367752039333,0.09524571991270116,0.10836101914517415,0.12242559126065551,0.13670582996632674,0.1492758547351561,0.15779274896068804,0.16128154257767316,0.16017006468421321,0.15566262363368905,0.14947797323184311,0.14271524347996642,0.13481934546055552,0.12455138496246479,0.11172263267358613,0.09716764825388143,0.08127793030374122,0.06341871295909189,0.042723192923367674,0.019348346658439125,-0.0048650997993114654,-0.02739743936424907,-0.04660887633739626,-0.0622174068747088,-0.07489458445573982,-0.08545224102005186,-0.09450509361163922,-0.10270582963251115,-0.11028475061790932,-0.1164043740357883,-0.11977024098502448,-0.11970307790985342,-0.11608055144792864,-0.1088948167370186,-0.09870749571103936,-0.08701144798684517,-0.0756848438258372,-0.06626473474853414,-0.05931862623428868,-0.0541349308397929,-0.049187698640017694,-0.043026681249558794,-0.035091635217270684,-0.025904560871489624,-0.01633672494246971,-0.0069530638364079765,0.0017295316035826035,0.008810987083963695,0.013265848800409014,0.014570385043849794,0.013167719669171936,0.010615890572273213,0.009029240841963137,0.009906403347571363,0.013241947701257318,0.01749872094351277,0.02050020957126944,0.020762590465630712,0.018324796519386254,0.014576774341342653,0.011234945818492584,0.009381768036175091,0.009375788188672808,0.010950580328111338,0.013311572586945052,0.015583157825602767,0.01689240315993027,0.016451127935145943,0
0.005777783874244072,0.002521585600906086,-0.00017786842445924604,-0.0010074778821587786,-0.00027749450668261214,0.0008298377114095419,0.001403785264748131,0.0014677518822924585,0.0019015631079764858,0.003153213790604161,0.00429144014559329,0.004288349782846644,0.003550137745057182,0.003589983400758897,0.0060824430725753605,0.011892075923399716,0.01990395338549185,0.02708659344591396,0.030039932882200564,0.02670476361465285,0.017351129204312855,0.0040814718652506035,-0.010515522853179847,-0.02393604580761443,-0.03417033966005992,-0.04060325081875894,-0.044131229809465884,-0.04635276046038084,-0.048789308092209056,-0.05238584238596528,-0.057346703366189605,-0.06343299925145354,-0.07001270123448533,-0.07567214943280152,-0.07888810607981672,-0.07928065328663611,-0.07744068674963547,-0.07466209298424652,-0.07392163336693153,-0.07924847773743296,-0.09170027994219049,-0.10489542025173648,-0.10394774652676843,-0.0699847645864252,0.00994024351427603,0.13287679382582496,0.27810789472535224,0.41629167392031524,0.5239673090292393,0.5911433830999653,0.613412966407701,0.5779355319016921,0.4627550525578396,0.2559584943751936,-0.019191593464979742,-0.29690538174198644,-0.4939048313700905,-0.5544381493870654,-0.48195938159301877,-0.3338978613916787,-0.18536209538743975,-0.08826761060247437,-0.05210419066843804,-0.054773479235419434,-0.06848417151193988,-0.07728007914777588,-0.07795100179454446,-0.07333130181824342,-0.06708639019833774,-0.06173661106753048,-0.05856627280686175,-0.0578224939301006,-0.05885202403826109,-0.06061729748578124,-0.06204379941673285,-0.06197496719708298,-0.059541885983058006,-0.05489137828875345,-0.04930921646572861,-0.044304295896490424,-0.040561361790691815,-0.03795934863711679,-0.03594081143808977,-0.03344008789704819,-0.02934613862316672,-0.023162403898268565,-0.014855390284568485,-0.004853823230935512,0.005799694170452174,0.016102764062819835,0.025544979600185428,0.034032326245464026,0.04228819266558251,0.05195490121683914,0.06461202206035008,0.0806916103562767,0.09897266071669077,0.11705265720915611,0.13278815122217383,0.1449813013898753,0.153054425029993,0.15709067775864982,0.15762019457601076,0.15525652872542298,0.15125525513879368,0.14729813389662194,0.1436466009151914,0.1385620507403121,0.13023722458405723,0.11829855210277979,0.10306744910663326,0.08455731687318467,0.06282592212788812,0.038699135196341265,0.01389453386831297,-0.009480225069895477,-0.029832897464454347,-0.04685224787867343,-0.061397553497166794,-0.07417413557664498,-0.08487151422840035,-0.09316881105441392,-0.09946496177175236,-0.10404785842124732,-0.1065961221831798,-0.10667354403549995,-0.10420439978471321,-0.09965218525459353,-0.09387289655097678,-0.08759190130867493,-0.08125703959842501,-0.07528449035296525,-0.0696894647078743,-0.06389292848225939,-0.057449510336666974,-0.050305383907140504,-0.042545204380620975,-0.034547489043043896,-0.02671953109071379,-0.01900521218603701,-0.011607360739370427,-0.005669130832807475,-0.0022632824942753083,-0.000991193227481691,-6.235876429093803e-05,0.0020869933943225075,0.005591924402528878,0.009714087093741112,0.01377467790033702,0.01709443406145458,0.018657058733656924,0.01753455241214775,0.013766508138365174,0.008710796433031352,0.004409359399168289,0.0024902382934084257,0.003539374575778894,0.006996112496321808,0.011231977770695796,0.014168111048527235,0.01441877970897355,0.012065462192762777,0
-0.004617440121352083,-0.0015377963273712526,0.0017563208692496439,0.003932968531681483,0.004204254430375458,0.00296497491808781,0.0010855016266685543,-0.0009593889270756582,-0.003041515645748859,-0.0047562575325992215,-0.005166334623129411,-0.003379550768785927,0.0006697318130403774,0.006175963995335505,0.012086881874930542,0.017475543527512863,0.021448065851597985,0.023217969740514856,0.022210935540899538,0.017848381074078747,0.009710832646220276,-0.0016460285483482788,-0.014489530841135273,-0.02697301338672455,-0.038050622413523645,-0.04719300804481375,-0.05395467803596572,-0.05825642587359017,-0.06075681825473762,-0.062480529917591864,-0.06403564622372568,-0.06564321330103065,-0.0674120865590197,-0.06914460233207739,-0.07072635101340698,-0.0724379676830598,-0.07447125608334242,-0.07725105698684195,-0.08233758050693742,-0.09157037424867519,-0.10377255346273755,-0.11068471527595186,-0.09619138807900957,-0.0428396073454325,0.05683241882882142,0.19248989980320316,0.3383717411562856,0.465985762051307,0.5581399302914907,0.6106107739351772,0.6189622539060756,0.5660627471130278,0.42754627427700054,0.19621752858968683,-0.09301579221656557,-0.36401014624123296,-0.5343113333755255,-0.5607400495333125,-0.46235145634554503,-0.305668019088115,-0.16386750996610205,-0.07919077811361096,-0.05220717635517837,-0.05844467724795374,-0.07284897202612024,-0.08226288123468259,-0.08405286246928755,-0.08036237405043545,-0.07396049274337049,-0.06685366329539358,-0.06062862420172472,-0.05678185540684633,-0.05601853480753846,-0.05736722140912584,-0.058990088600358676,-0.05981538354298603,-0.05955738332597606,-0.057843785944103554,-0.054421229119397,-0.04974884004497479,-0.04463580949164182,-0.0395491843510909,-0.03452303131521526,-0.029445849317592695,-0.024279801836650433,-0.019089753587754422,-0.01385369129445758,-0.008103766611660915,-0.00079067609981405,0.009255108595078375,0.02263042571256407,0.03886073221516319,0.056227887767447464,0.07245620195903359,0.08634552064677062,0.09872907930206878,0.11112211534930853,0.12379327415835129,0.13605208115007916,0.14746056634509105,0.1576743403308351,0.16584624165152484,0.17086839154566627,0.17204991940663236,0.16924237435711004,0.16239025503874252,0.15178145081054628,0.13878194779959083,0.1251733574878086,0.11158905072250747,0.0974349962256008,0.08179634447732437,0.06369549905003698,0.04239779066255183,0.017992404388906737,-0.008256262460192693,-0.03387001387039716,-0.05611078775505398,-0.07344498066797156,-0.08585087348730752,-0.09419194985420212,-0.09998903646265501,-0.10496164467107819,-0.10989897757194325,-0.11441648860754441,-0.11763327797162229,-0.11865599972842478,-0.116819309250304,-0.1119333260967427,-0.10439039992439672,-0.09485512008757177,-0.084308455608254,-0.07434123589031671,-0.06624416784382611,-0.059869989446434256,-0.05401226098719993,-0.04761377615584521,-0.04039406522237083,-0.032419171772706916,-0.023595228097414878,-0.01408252363243476,-0.004792312918613598,0.0028827032352428707,0.007787577501991454,0.009638245791199962,0.009250677039187754,0.008077847670133979,0.007259168269838422,0.007427959080016734,0.009141100878644046,0.012378670725383253,0.015805571156949978,0.01774162501105588,0.017928196198199554,0.017286128383647143,0.016402154594779242,0.015543285511002158,0.01520298832327611,0.01559074011968467,0.016389552675198128,0.017240177957839338,0.017905915844892834,0
0.0005616066476786326,0.004098052623496608,0.008082534735998978,0.0109346879548173,0.011244858734358435,0.00859936672921257,0.003814833114532468,-0.0015099386643770134,-0.005956975018253243,-0.008774218618951331,-0.009654227995309022,-0.008303305304034097,-0.004306326078434092,0.0020522052741626597,0.009285499177319119,0.015573716511201777,0.01939795193944194,0.019687821704833533,0.01632222793994998,0.010136409510795046,0.0021077034614111153,-0.007201136690104304,-0.017396805666291752,-0.02792150802116866,-0.038154295153901355,-0.04772477348687394,-0.05667460350241561,-0.06485143554280884,-0.07114569094945083,-0.07421013271405805,-0.07413534454946183,-0.07281265219263947,-0.07238671483910764,-0.07346516828193043,-0.0751200483063063,-0.07665340487379778,-0.07854748287610347,-0.08160535593712791,-0.08648397002075002,-0.09429449795520542,-0.10535498842803662,-0.11454544969954772,-0.10752285275078848,-0.0640889102128308,0.030550456801840275,0.17386313614130253,0.34326596280757476,0.5062778526820866,0.635718885995313,0.7154249125879595,0.7317120862425365,0.6644102801024689,0.4938747350909586,0.22314516774737034,-0.1028676607561256,-0.40212098123161816,-0.5897928263539771,-0.6227525768026054,-0.5219926159232885,-0.35635046858602404,-0.20128188022811389,-0.10213124366414936,-0.06275804893704594,-0.060703026728981424,-0.07119557438924719,-0.07991571316244812,-0.0823671054674454,-0.07942897374549243,-0.07361362679501961,-0.066802742152153,-0.06040197650017429,-0.0560816662405251,-0.05488057395099689,-0.05596818156707391,-0.057306314495658595,-0.05727112673808653,-0.05515525624276704,-0.051133103866095785,-0.04637102781490497,-0.04229574241017788,-0.03939625422313311,-0.0370678454097783,-0.03431577636954377,-0.03043994313532098,-0.025503904595820675,-0.020139381866069592,-0.014745867943946634,-0.008917241706018283,-0.0015406181874264083,0.008433726978506643,0.02116439220408746,0.03581707476363109,0.05108585802550908,0.06563928974585599,0.07867678719855192,0.09069177543295961,0.10287405554370194,0.11555102539883406,0.1280676023211115,0.1397049064938114,0.1501413514642195,0.1591110786925422,0.16568324491441708,0.16844347453569503,0.1663829727064685,0.1592619436236986,0.14768746300359079,0.13320609027192237,0.11777280177840957,0.10263816584538513,0.08771052380104152,0.0720555842239558,0.055079374015266275,0.03702023085025245,0.018113506638447293,-0.0020113387159329636,-0.02340747976615439,-0.044881752859047774,-0.06460772178020295,-0.08104773519889086,-0.09315070223412841,-0.10069806627072855,-0.10467438446647923,-0.10661688717491873,-0.10763207115668952,-0.1082521775984981,-0.10850679043627404,-0.10779049618184844,-0.1051948826029341,-0.09995531866700132,-0.09152332873366253,-0.07999948068849685,-0.06687456612503674,-0.05456502153415006,-0.0448542500208096,-0.038117473790773716,-0.03381455276683807,-0.031059138210475387,-0.028495939055662365,-0.024620560272035324,-0.01891812640509426,-0.01194260659513229,-0.00459575065681617,0.0019507033395349382,0.006619635864973947,0.009100704546979078,0.009816787346122248,0.009762306070529855,0.0102146719512867,0.01201629900712795,0.015179087746788483,0.01889165134548338,0.021915780593628247,0.023268111984567123,0.02244027152760728,0.01954964320684527,0.015605536177080947,0.011880086337320907,0.008970589369672679,0.007088300253947623,0.006759011291633566,0.008260730167634865,0
0.0007456686347511185,-0.0007680863742820314,-0.0023486114486229934,-0.003298028537279756,-0.0028499790560409504,-0.0009358648500167198,0.0015047129266136067,0.0034282965555358608,0.004277385649769868,0.003785453332589661,0.0021665450721284566,0.00040097544897586953,-8.054031066534744e-05,0.0019385968654032633,0.006856957093488655,0.013893820487809147,0.021221172378706986,0.026712984311070335,0.028424383471313402,0.02473345160593149,0.015201547471483487,0.0013134908918896987,-0.014050145191726917,-0.027718824955702902,-0.03736648417534166,-0.04258155259817484,-0.044937559920414094,-0.04662895956774326,-0.049158553685113626,-0.05296823697957151,-0.05743136110830275,-0.061488206886713706,-0.06471797595009236,-0.06731207087080454,-0.06915360136214707,-0.06975624498307423,-0.06930302677395811,-0.06933742978610913,-0.07247536619697643,-0.08139715882552123,-0.09638336935011696,-0.11171136822007073,-0.11403291431657603,-0.08546875869412054,-0.011815196466387474,0.10711784816856178,0.25305270983110467,0.3969537245014343,0.5138849865682961,0.5918054798728164,0.6258084981677817,0.6045218917676172,0.5064090595935681,0.3160458037646737,0.049628282485880686,-0.234237267062671,-0.4538814559569879,-0.5458883836010152,-0.5007635649800084,-0.36634932329277925,-0.21656331004282933,-0.10941596478557576,-0.06278047729061405,-0.05955704783476873,-0.07148250072748119,-0.07987458751069049,-0.08059323284414326,-0.07750715084545982,-0.07496151373289275,-0.0745258414033183,-0.07551512730393158,-0.07652012455785633,-0.07628482648014909,-0.07425317560997344,-0.07070799293859781,-0.06622326514852717,-0.06159144303921329,-0.058338070213162826,-0.05784316494134626,-0.059527504656526294,-0.06092489166188336,-0.059451405556722535,-0.05380638539335313,-0.04460095832413762,-0.0340798586596077,-0.02467928807234481,-0.01733000235912789,-0.010903526333707711,-0.0033576514968233773,0.006445480679063932,0.018058267400074147,0.030375251037777173,0.042875613723243736,0.05611760428411497,0.07132839572444065,0.08917985587332079,0.10867859553768869,0.1273843861963018,0.14286134414479568,0.15421507923307715,0.16245645979891493,0.1692433045769061,0.1753012100712856,0.1801298268516307,0.1826158340054131,0.18164488398296963,0.17684176269778182,0.16889745914800855,0.1586786421141537,0.14598483695286504,0.12944396917937256,0.10797245001945155,0.08232720826894928,0.054679935077160666,0.026938800773663337,0.00018327358696523452,-0.024821245796634542,-0.04746337120737139,-0.0674541791466012,-0.08465864344930504,-0.09880786355074578,-0.10970859308067017,-0.11770191097114038,-0.12318963235552371,-0.1257772278046257,-0.12496104583832349,-0.12125842836630414,-0.1158322974349423,-0.10978147617807273,-0.10407474035883509,-0.09942825187250083,-0.09570732843669082,-0.09140874122712139,-0.08460755004361752,-0.07478201759759008,-0.06306906538225751,-0.051045429286564796,-0.04012848161826117,-0.03170324094751773,-0.026469932341423252,-0.02349702344174224,-0.020963825224936214,-0.017755543059091515,-0.013517471685719715,-0.007950682070351656,-0.0012727602781641596,0.005234543772587004,0.010129284778945776,0.012718664139569711,0.01279472668397116,0.010699376856247708,0.008018650904681318,0.007026207005435102,0.008925652822889483,0.013239110232019478,0.018584846127446042,0.02322015579350343,0.025530829818633863,0.024804020275089038,0.021555858573097657,0.017225930832815976,0.013253930893555579,0
0.00237747260405061,-0.0018985265013397594,-0.0060870644721976105,-0.008900605061693734,-0.00978621373135484,-0.008867789824479671,-0.006350436594290569,-0.002387504727617152,0.0022611986572827507,0.005797486726286489,0.006444959806157266,0.004227429651034848,0.0013044086559001566,0.0009462983263854332,0.005772695927803596,0.015361661808520504,0.025688357240479083,0.03174774763434475,0.030405099240618846,0.0214018410507493,0.0070388605922048555,-0.009175972564928359,-0.024140238581049567,-0.03592233231660284,-0.043897983419030166,-0.04876933186533711,-0.05193054737955286,-0.05422404222789706,-0.055738184598143496,-0.056991903966866715,-0.05945081528515499,-0.06439768212414482,-0.07154965595543948,-0.07889576505454347,-0.0838757502964392,-0.0848053936165488,-0.0820969116875891,-0.07912356873986551,-0.08097943768328231,-0.09093618506081164,-0.10673031999610873,-0.11795533174569847,-0.10670033056894355,-0.05433000283369084,0.04740806758124786,0.1885763647906952,0.34340826330947233,0.48231920007399626,0.5853741382090667,0.6449737350350223,0.6540746941130663,0.5949257909325218,0.44546461382815816,0.20278671569669993,-0.0944424496070972,-0.3685791405516098,-0.5380454964039463,-0.5622751480308944,-0.46303980151094215,-0.30761865729079846,-0.16793616107585702,-0.08474485488050394,-0.05797394530609311,-0.0629537213455386,-0.07454283314321289,-0.08007614374920535,-0.07783535437438348,-0.07091235710831881,-0.06341369754751547,-0.05867731555398078,-0.05821719106314967,-0.06160599942448086,-0.06692091261977093,-0.07142465849605689,-0.0728595847642037,-0.07032618444046791,-0.06441708030747782,-0.05742249220873654,-0.05232250775772189,-0.05039452200447078,-0.05028729480293352,-0.04949179414276183,-0.046156444740469926,-0.03972187836849948,-0.030655352743008284,-0.019968293249267428,-0.008745122071193106,0.0019882968424312485,0.011245118925704189,0.018688894751598482,0.025341708919119625,0.03315624284878772,0.043819290230442426,0.05801718663061872,0.0752686758119483,0.09391122229969469,0.1115885621823594,0.12645051486450398,0.13806693770072473,0.14704223970677235,0.1539986088996287,0.15912205983114347,0.16226090592677886,0.1631447142221063,0.16172170244480316,0.15815428216044078,0.1520332316496052,0.14246375682368775,0.12959592173397075,0.11472697486936685,0.09857273410468506,0.080587087253424,0.05990603237397532,0.03667750215183467,0.01262947936828646,-0.010070970459739186,-0.030208935982776904,-0.047643596759376884,-0.06308919907037633,-0.07757489796937074,-0.09156148812070314,-0.10459367199467573,-0.11515716057434122,-0.12121062415375257,-0.12184251701907386,-0.11802128884254305,-0.11161369315008182,-0.10428955694932077,-0.09705558455415296,-0.09024618467701455,-0.08387456450671758,-0.07793070317884901,-0.0722962475784853,-0.06642419462761208,-0.05938244095274796,-0.05064321956127017,-0.04074905506558755,-0.030957282014576835,-0.022401889635131372,-0.01569059239949228,-0.011038011942270071,-0.00826754680066316,-0.006829975744883169,-0.006109059465833289,-0.005026028740646633,-0.0019155824711018163,0.003884548539922074,0.010870610695643716,0.016430342097948615,0.01887220404577172,0.01837857893873006,0.016075102913047097,0.013039541880726646,0.010579743231077432,0.010166262720549287,0.012451447675551073,0.016625219186038875,0.020800192547551853,0.023333154984514055,0.023658658667986027,0.021878709639253993,0.018555490036151864,0
0.007409957463838921,0.0069951621500347,0.002837547685314033,-0.0035018982118937177,-0.00937599732385579,-0.01299194002030105,-0.014272680896447322,-0.014095339339314911,-0.012922582823556537,-0.010482729085943493,-0.00712575772970221,-0.004714796307063134,-0.00491461505252078,-0.0068151520389853,-0.007454076647171297,-0.004631081311009302,0.0013927047369967306,0.008126251326017927,0.012140357425448297,0.011034217597901089,0.004949333417429677,-0.0036791993092406,-0.01208624095984939,-0.019081716661607264,-0.02522946625911735,-0.032063717380120794,-0.04131292931815903,-0.05344032110774204,-0.06630612331214625,-0.07624335724235964,-0.08079484442072629,-0.08043380300046928,-0.07830438670130248,-0.07796454937197508,-0.08052043094525474,-0.0840971357756928,-0.08589719651651795,-0.08449271065972123,-0.0812883238979611,-0.08027631781080331,-0.08547640548595634,-0.09684408764375688,-0.10560164151682809,-0.09285841803302643,-0.036577679365578236,0.0750299732138959,0.23336299170752087,0.4112711700570706,0.5757090618367506,0.7004316189178066,0.7680478825247145,0.7619105225533566,0.661186358455019,0.4517456249800596,0.14870227195440533,-0.18951284829311385,-0.47446138308129265,-0.6279089802905784,-0.6236642367579106,-0.4995787522519436,-0.33127002159994223,-0.1886816847148036,-0.1053393615161526,-0.07583182710902084,-0.07541680977062347,-0.08221497197453297,-0.08632717228978251,-0.08666946197874675,-0.0851882552005806,-0.083399059484161,-0.08143745084686355,-0.07865664513190707,-0.07431698069681843,-0.0681332109481717,-0.06076598263082424,-0.05363390993991017,-0.04815508478727641,-0.04493362929882021,-0.04346687736629039,-0.04268578352986319,-0.04147658560463802,-0.038792510480121035,-0.03403013388030502,-0.027403647488322806,-0.01981660826638946,-0.012479002194407519,-0.0061602419076295465,-0.0009065422406774014,0.0032584205100857945,0.006634829687609974,0.01089933259301659,0.018200377288297705,0.029145858965847298,0.04256764088114033,0.05687124048151401,0.07084224800077325,0.08364780586914597,0.09509037802984319,0.10570696277462568,0.11592067864616065,0.1253718040194248,0.13353644866945993,0.14049976806556766,0.14684476601730953,0.15315737253778933,0.1592412534864288,0.16346074251029552,0.1632861738461853,0.15657071312365714,0.14271884717308442,0.12341756737049694,0.10202836248930132,0.08152415668173933,0.06280789044900299,0.04494732508017693,0.026524177504211415,0.006526297558625591,-0.01543556462689187,-0.03867698489977213,-0.0611762403023927,-0.08048962542848792,-0.09463318042891694,-0.10247574574366669,-0.10453174547292578,-0.10313391885488249,-0.10096699805369325,-0.09938637669092878,-0.09863461310251086,-0.09901427507186639,-0.10026175428087675,-0.10041899468602213,-0.0970386621099065,-0.08906162254907932,-0.07723550769351843,-0.06390283357711059,-0.0522026394702063,-0.04425324888833348,-0.039782071518434076,-0.0368425426871364,-0.03374703074564077,-0.029662238835321354,-0.02397446887538636,-0.01657656686160029,-0.008747192230014432,-0.002743648780711063,4.281088609843671e-05,0.00044410444173381344,0.0005930006679053645,0.001945306972950804,0.004560182046367973,0.007571666794195155,0.010221184714151545,0.012704863172801294,0.015602947537508714,0.01875313902445321,0.020939785690541862,0.02053149032099897,0.016853466816753787,0.010900549193522551,0.004693452621698332,0.00042935747322568087,-0.0004072146705972222,0
0.00010643723111193094,0.0007810625418896084,0.001544679750920452,0.001448207307636411,-0.00044856809687132454,-0.00397166329883858,-0.007114781276095189,-0.007357879507752902,-0.0037951869204001973,0.0022556671434170996,0.008360501929924656,0.012662936393939405,0.014696258216952173,0.014920316192369144,0.014300052929239365,0.014138892629070107,0.015227548191247265,0.016625477247772705,0.01569070648410232,0.009877555372408081,-0.0014446489696486404,-0.016563890443325697,-0.032325442054850134,-0.045620767102626525,-0.05441721431670597,-0.05825061442112368,-0.05845300228656153,-0.05758698536021365,-0.05802059461368156,-0.06055748622054948,-0.06430354354811074,-0.06809890573170257,-0.07179916847286719,-0.07579234879809166,-0.08004478337252366,-0.08412351191367279,-0.08766615361727087,-0.09092285486332448,-0.09530346357716049,-0.10280938329253575,-0.11306420739619467,-0.11895152740487074,-0.1049355510787375,-0.052202744238875734,0.050214523258972375,0.19567420864150198,0.3601865406273635,0.5141935718330813,0.6359441070967959,0.7127134239186508,0.729390951970387,0.661457130170952,0.4868633450812216,0.21151367416192174,-0.1131665529681263,-0.4008919424241397,-0.5694558943670982,-0.5841353691092803,-0.47488244855621825,-0.31488650951885244,-0.17696947837126642,-0.0983371304421001,-0.07471144269441274,-0.08053966439481178,-0.09258700605845598,-0.09943865831157632,-0.09903861579325224,-0.09361208482150539,-0.08619349041584741,-0.07901183907024492,-0.07304177787419505,-0.06856145233306965,-0.06596408030850573,-0.06539954107002452,-0.06601347149567921,-0.06642397590126012,-0.06574808236618998,-0.06370585659305046,-0.06010234228533301,-0.054718064298003743,-0.04801819899874221,-0.041662313600054714,-0.037381072094816135,-0.03524007299722786,-0.03341630189458863,-0.029574337789184148,-0.022170629323328882,-0.010967378636889525,0.002835171965883277,0.017175884803545042,0.03029118445137758,0.04155706350525204,0.051494049371195574,0.06100256869084889,0.07091581611789871,0.08245934784987226,0.09722859635033276,0.11570030779943263,0.1359129292963656,0.15409202433362246,0.1667286524742671,0.17241506070898568,0.1720864291789017,0.1677042148208482,0.1608711745292618,0.15275814134294108,0.14477221540641577,0.13822955987437874,0.13307969320904192,0.1274934866743413,0.11884782682697019,0.10492533462337093,0.08472436376453446,0.059072304552122486,0.030435709542406677,0.0017389694502930528,-0.024519414520449003,-0.04668539353568438,-0.06458812924798778,-0.07939686456241078,-0.09215783249908736,-0.10284128158995748,-0.11083171059175051,-0.11587811012842514,-0.11846572565542333,-0.11914151460297213,-0.11784263744441421,-0.11416793431035535,-0.10791849089501489,-0.09949425095945742,-0.09007313513303702,-0.08124940783438114,-0.07414620696665762,-0.06843348804006423,-0.06258731740015587,-0.05567639836060907,-0.048103501829538035,-0.040484547786162284,-0.03284709609162256,-0.025075753250311993,-0.01752735801841987,-0.010782064589827422,-0.005248473757507371,-0.0011279960543984849,0.0019209444516965248,0.004862719784690351,0.008447199142887803,0.012356519882059895,0.015621225625427313,0.017860205649520008,0.01949587833570853,0.020840122339175593,0.02144643712197309,0.020485255720327382,0.017964988514192475,0.015255346078549427,0.013792235602090969,0.013749376597344168,0.014387064033884183,0.014876668371372352,0.01436153918979048,0.012087268756022413,0
-0.005430903812315209,-0.004619124557323745,-0.0007557222187114759,0.00470086881586876,0.009166747215269682,0.010221103280303293,0.007269770304305,0.0021384803175330566,-0.0021182189794767235,-0.0033180240000064594,-0.0012455744234445205,0.0029348358427459904,0.007903112485099775,0.013045620839932198,0.018120084826110716,0.022627490250216202,0.026020252715402724,0.02778662579135976,0.027196122619061996,0.023343452435958482,0.01563910741673808,0.004677826167565497,-0.007553739118448295,-0.01885469618443384,-0.028260007076755966,-0.036177024079721926,-0.04311836868866591,-0.04882887719726836,-0.0529689322886137,-0.05594332858230406,-0.058440005986730145,-0.06054781760582724,-0.06184739907456741,-0.06220215363453833,-0.06198935585419541,-0.06171462630656786,-0.0618289372539892,-0.06311042562447765,-0.06740514735340705,-0.07702294052573945,-0.09134018417929882,-0.10264316833855557,-0.09548273588748066,-0.05246663140857631,0.035247511062944256,0.1597136476914748,0.2971054963569036,0.4186810013136518,0.5051772384346427,0.5525084063616801,0.5615075917429769,0.522085469236432,0.4122818502197757,0.21850916988056568,-0.03916255106362606,-0.29984663722008764,-0.48489577994431055,-0.540523793345419,-0.46938690444705744,-0.326414595866688,-0.18331446096632092,-0.08897022017919473,-0.052103918496975404,-0.05239736298395425,-0.06395575476697984,-0.071107790843272,-0.07069922395315124,-0.06675861079352488,-0.06391614352337303,-0.06347106583893021,-0.06397267781998366,-0.06393589679181344,-0.06287830834541394,-0.0609406400341192,-0.058842906630324945,-0.05743973296320035,-0.056651476419216557,-0.05559395454493686,-0.05384984835027413,-0.051790697223563664,-0.04971759988412432,-0.04717052331074875,-0.04315952840996064,-0.03725632943771794,-0.030348968353578087,-0.02381629469253385,-0.01806599526615019,-0.012320035960928654,-0.005660595679141185,0.0021716807143656053,0.011210226878589,0.02204387568673718,0.03552328609533954,0.05182259920999506,0.07010224874241884,0.08890963695149716,0.10675906738923996,0.1226410444362567,0.13634326484322878,0.14838788555486968,0.1595118569936206,0.1699308955305222,0.17902667060635,0.18544952039256501,0.18752216690065396,0.18420008158167853,0.17571484804076992,0.16335315975983433,0.14872949863337193,0.13274009230818168,0.11523281202791372,0.0957783435730987,0.0743557055999674,0.05133238150743871,0.027277572852882775,0.0031963550452948596,-0.019578881321638347,-0.04042991834467947,-0.05993829948596416,-0.07879574463746226,-0.09650160715053921,-0.11127085275342899,-0.12112597590897181,-0.12540170880725668,-0.12522330899435288,-0.12255545374963163,-0.1191456831710543,-0.1159011997526131,-0.11258457511455194,-0.10825049104927084,-0.10237171235554726,-0.09544577178265969,-0.08827876461420041,-0.08100386982731374,-0.07318893243926698,-0.06470783305006918,-0.05608370397423929,-0.04813655986168604,-0.0415034744257182,-0.036237982630983503,-0.03190901483564594,-0.027990064411118912,-0.023774974912184076,-0.01828251013647387,-0.010927562826598477,-0.0022771148447534376,0.006044590064728111,0.01213507615899052,0.015076889160549386,0.015879129023904544,0.016511451908046794,0.01801423225355811,0.020183002377454805,0.02248779229606885,0.02449747029001935,0.025724069584587242,0.02582443766610811,0.025259291149594715,0.025213843778099407,0.026628440733492544,0.02954210099753052,0.032966385091118995,0
0.00502913516499468,0.0057781968817667735,0.0032693748764582873,-0.0011686939678888378,-0.005121961847768464,-0.006633856581080167,-0.005601857501308256,-0.003621805986978807,-0.0021167685795604957,-0.0013206024017111723,-0.0009533364373197676,-0.0008929594616236662,-0.001025458877913696,-0.0006582927497129269,0.0016241564508187197,0.006831609633989988,0.01413541894301511,0.021141611001162096,0.025393500674850595,0.025268975035111718,0.020283877832681114,0.011124173040901537,-0.0008469757705294539,-0.01416031907137471,-0.027459422811316934,-0.039519995947702155,-0.04925832002189807,-0.055704105208910754,-0.0582344154504292,-0.05739006183329191,-0.05533271328089222,-0.05499717280817218,-0.05834448486793993,-0.06488563229994043,-0.07194539970167245,-0.07664682928017139,-0.07768203763722141,-0.07603907437259644,-0.07498647732762823,-0.07864585243025302,-0.08883164313481463,-0.10091093919783256,-0.10086414922313523,-0.06855920619066666,0.010904990936722139,0.13523066804213052,0.2820763661529643,0.41878545043167853,0.5195679103440989,0.5762399395428665,0.591164037099584,0.5597799482213779,0.4635090961804284,0.284821105856744,0.03373438767244619,-0.2383618794360258,-0.45378573963384083,-0.5479593246213621,-0.5071899944851493,-0.37517286559412055,-0.22364565673473413,-0.11131113559121203,-0.05904392994121785,-0.0530170929932803,-0.06640832348927826,-0.0789992879832849,-0.08290141040985644,-0.0788615233568293,-0.0710143184853498,-0.06334779375601671,-0.05857764116400746,-0.05809694201486662,-0.061543057717242326,-0.06669157395977558,-0.0703926600665657,-0.07010248642769792,-0.06540191511470328,-0.05839449014103576,-0.05215543011311914,-0.04852295061061494,-0.047188435660051035,-0.04656112458865665,-0.04535830855489954,-0.043131363392721,-0.03968134200822946,-0.03474044849890951,-0.028043289155189957,-0.0195761923497215,-0.009583260770270642,0.0022351678419561035,0.01683924534582661,0.034174133447794,0.052138584878236485,0.0680522419178418,0.08090471546766062,0.09222456028823163,0.10475793463816335,0.1199979792183285,0.13693851765177562,0.15305519935413064,0.16602681315326612,0.1743506985753518,0.1774928372152716,0.17639424693131198,0.17309291956680625,0.16932838377578474,0.16538187583327063,0.1601161195312497,0.15218604351105292,0.14084648020717422,0.1255983214467079,0.10579392816687692,0.08146805025951481,0.05445414363118678,0.027356218735197706,0.001524572767736758,-0.022896998300079206,-0.04568642882715224,-0.06631580684294527,-0.08443031831942421,-0.0998675614715636,-0.1123294860522224,-0.12141609094511707,-0.1270245943940578,-0.12935046319701832,-0.1287211064056194,-0.1256991945736326,-0.12083736584002579,-0.11450601831037421,-0.10714613312979898,-0.09907647850762707,-0.09041410624410513,-0.08173858888630428,-0.0740505192621409,-0.06763827307864204,-0.06156686501634888,-0.054430735065221295,-0.045546278286351424,-0.035526617295609166,-0.02570424154418143,-0.017070684182158083,-0.00977440830868668,-0.00362874152870964,0.0012155363596861452,0.00442176061121333,0.006016590353635269,0.006768394459438875,0.00792855183104702,0.010386884389073175,0.014188655983665954,0.01851884130646301,0.02211474465565818,0.02399520519636468,0.023751062886995356,0.021708620222048496,0.018972370332451173,0.016763118339213956,0.016036027022958296,0.017322188983937094,0.019891637967633394,0.02187741781827164,0.021952735460562676,0
-0.005021545490411187,-0.003368124095848258,-0.0022746939768790164,-0.0022543210816023435,-0.002924155557211437,-0.0038430476121693357,-0.004894967192618959,-0.006006449094719091,-0.006724039269860756,-0.006267448600370189,-0.0042497747552168175,-0.0010022199782467626,0.003248592134214318,0.008916132972761443,0.016020414660687404,0.023106418020286602,0.027839658465380994,0.028454669491842607,0.024701617022431857,0.01759148062504399,0.008137016079627687,-0.003093562155625974,-0.015251378354221055,-0.02710445499873713,-0.03754824554229888,-0.045620535376930026,-0.05082448115227814,-0.05396484612613586,-0.056799360224028435,-0.060561993235317246,-0.0651772587338417,-0.07003476548794493,-0.07501365886886754,-0.08002510893328764,-0.0842967639959732,-0.0868636095217451,-0.08741455394957943,-0.08707268832574841,-0.08868489717938081,-0.09535951866419624,-0.10715993534497963,-0.11755052262423836,-0.11198685280178036,-0.0714846133292695,0.017469079247503135,0.15180519183808724,0.3096332706990126,0.4609197909880788,0.5825231064267449,0.6632530656771414,0.6943228807356512,0.6574416252920422,0.5277384441036541,0.2953193311528385,-0.009861636689371393,-0.3140888753074725,-0.5290448504133258,-0.5978428093274508,-0.5252358322303741,-0.3710027810703884,-0.21226297869694138,-0.10246101501508678,-0.05414841519807685,-0.049600629938287816,-0.06296503742088114,-0.0762656965245146,-0.08313487540849679,-0.08478309490641148,-0.0843950208753286,-0.083356589130043,-0.08085823942119018,-0.07600228141397972,-0.06925905358188086,-0.06205820921476934,-0.05624809812895458,-0.05367583782679108,-0.05476595587530127,-0.05768736541230317,-0.05987097816162899,-0.0595568007905973,-0.05574546340329832,-0.04851139164643097,-0.039403924442421585,-0.030254975405088324,-0.022200720041387484,-0.015996573678819882,-0.011794340278468242,-0.008337165793546146,-0.0032266235249190766,0.005526743843015243,0.018080346266923356,0.032901299820739645,0.048094208750292494,0.062435855298733745,0.07558834226235892,0.0878050198318468,0.09956004284190077,0.11113093298884459,0.1223572685213746,0.1329239916205709,0.14261188024081012,0.1512527497641754,0.15830079851411016,0.1622846635081527,0.16169774953166421,0.15671134170819126,0.1491605520474046,0.1410302824721473,0.13316938219162777,0.12491964057200144,0.11465561851760499,0.10065776465812792,0.08195786298851362,0.05898571428059524,0.03331806845158909,0.006571336362457703,-0.019882847667017645,-0.04423889204455628,-0.06473076758265672,-0.08070251049946828,-0.09244558679735214,-0.10063095294635976,-0.10606539894246278,-0.10948486090993756,-0.11134472116846687,-0.11169248531637949,-0.11058893419233609,-0.10856228083121125,-0.10599800772122811,-0.10235868495771425,-0.09656415750740391,-0.08800810540407131,-0.07734931212711077,-0.06670552623906183,-0.058454581615720834,-0.05305331178496418,-0.04853214367248219,-0.04252851290359497,-0.03423046418802264,-0.02436953900955082,-0.014137192033709277,-0.0045965400477000744,0.003196301711596069,0.008272265374301662,0.010180843338593103,0.009371367694302718,0.0073404743716105544,0.006145362304595052,0.007396504417294841,0.011532451182712011,0.01757389908976969,0.023432389835229852,0.027057077392721587,0.02754036885932713,0.025286356665145743,0.021564424295137056,0.017811622883282453,0.01490714118902664,0.012909254522970138,0.011638310904699734,0.011346705544409103,0.012499565556314055,0
-0.006833823554123807,-0.0036908289881654927,0.00023222301092674325,0.003844135753219672,0.005409856452370644,0.003916287660884122,0.00041476080203768444,-0.0025724178152920756,-0.003126064577901828,-0.0012187617142381771,0.001607103692821693,0.003750497038993124,0.005043587950142328,0.006617911662335709,0.00957864897607298,0.01416697513919804,0.019530989549072442,0.023949654678865468,0.02564840734312024,0.023581068749839264,0.017684504819543354,0.008526783289856732,-0.0031371345226542074,-0.016310891373867063,-0.029502545045395852,-0.04068896635708507,-0.04798470300067434,-0.05106757874520587,-0.051784502549971814,-0.05273098141850365,-0.05541067587483048,-0.059833464919403355,-0.0650042562516948,-0.06970138116411945,-0.07327423308195496,-0.07551181142049324,-0.07629192192684024,-0.07626093775348848,-0.07740727290565545,-0.08224052890570106,-0.09169218465367122,-0.10192706609894676,-0.10160614979923206,-0.07354042718911784,-0.003022981792673844,0.11093680540986821,0.2501953226059523,0.38495267114143444,0.4901987778301754,0.5563517532883334,0.5836007755085256,0.5660160041006653,0.48391270362387606,0.31712298467571465,0.07135428793438567,-0.20495727020168694,-0.4329768652497686,-0.5432381586445347,-0.5153242380256379,-0.38766634953879975,-0.23166377106965702,-0.11033813080834942,-0.049896816471420746,-0.03946436256047049,-0.05229721318390369,-0.06750289532950701,-0.07687304753751743,-0.08011015249693149,-0.07914360934774643,-0.07552092849177541,-0.07008925678304541,-0.06372787829900338,-0.057864916675088335,-0.05422557560526108,-0.05373400550875845,-0.055481404765134266,-0.05743235089726456,-0.05800484746301691,-0.05648134736141648,-0.05286196508378323,-0.04798293324153918,-0.04319438785570465,-0.03953518546478738,-0.03708759956868608,-0.03499451342304236,-0.03192122057381569,-0.026785320817601897,-0.019558605820017866,-0.010914102761261748,-0.001113761341231069,0.010221523258593143,0.023694324079703254,0.03947673914163779,0.05672120794254075,0.07398819326588701,0.09011769393767724,0.1044212922645377,0.1169348009219151,0.1285959964301928,0.14006455544889698,0.15104860241505422,0.1613634032203688,0.17092155839152112,0.17845950823054735,0.18165422165274075,0.17855530516248347,0.16897331734414828,0.1549170343103555,0.139355801067019,0.12441754662415654,0.11070781079454009,0.09748737128253873,0.08295847480914356,0.06502667736446738,0.042593157026513395,0.016282424068579347,-0.011971525436164903,-0.039550410556928234,-0.0634814145489053,-0.0814695257828977,-0.09338285187727696,-0.10126759898972386,-0.1076319095799763,-0.11367734562587352,-0.11895387268429362,-0.1224106071345551,-0.12340939738684314,-0.12181191061211258,-0.11765828096076052,-0.11109563072471108,-0.10261918139202492,-0.09314185880508205,-0.08353150833626502,-0.07419601352265691,-0.06531356995386531,-0.057296972090971586,-0.050675588167911796,-0.045367826899876375,-0.04033812376822715,-0.03418253458411991,-0.026171392791055875,-0.016851643580991338,-0.007710995207387432,-0.0003966066131507479,0.0040659070447131174,0.005881040175734029,0.006412784410000439,0.007184174003964037,0.00888108662665414,0.011539520332723954,0.015072935937880488,0.018969148344240606,0.022193095624474395,0.02377871196307758,0.023127031168140265,0.020287874971293716,0.016417156118807612,0.013297226304056463,0.012089058629648208,0.012866265217029828,0.015073522111859208,0.01775161963123917,0
0.005318930957880724,0.005269994540370871,0.00499133404222144,0.005312279751559141,0.005892184607275509,0.005301241899370618,0.002856157261369248,-8.376848049220756e-05,-0.0012601211562057355,-1.0859333043669654e-05,0.0020830450231954503,0.0030578600979706736,0.0023482302625004495,0.0011624271747988054,0.0014523283091357215,0.0041677605899614854,0.00860494691538324,0.013017779541861297,0.01541277850659736,0.013969844949191328,0.0073871916969516635,-0.004235631656344978,-0.01886152700221301,-0.03311030540549651,-0.04363256647656926,-0.048730785318173576,-0.04935512585388542,-0.048594304506718713,-0.049658989601264296,-0.054099477496664404,-0.061519735292397404,-0.07002272118633529,-0.0770027018540699,-0.0804881184310771,-0.08024490382738864,-0.07756587900753815,-0.07435166830286062,-0.07290550667875853,-0.07599994119205614,-0.08576748729219963,-0.10104355822491458,-0.11410985644312528,-0.10941700052278604,-0.06742210072062638,0.025769910720822478,0.1673545129620387,0.334189551427404,0.4922947532678208,0.6133694056988009,0.6827496506230569,0.6912793658147955,0.6239770427744977,0.46370666944456007,0.21134057083519664,-0.09454741350545263,-0.3794385739354792,-0.5627670684267935,-0.599749615497837,-0.5060935719968258,-0.34649695535246006,-0.19532782985627786,-0.09856224284151041,-0.06122246693618048,-0.06127489548997491,-0.0722933495993295,-0.07822100029857333,-0.07598528887412943,-0.0700589961586718,-0.06533459252731012,-0.06364195863482598,-0.06429109053263403,-0.06540583662590292,-0.06513825258472848,-0.06296613424737516,-0.05957276468893665,-0.055786945439716684,-0.052172925636394765,-0.04881976548843441,-0.04561299189819282,-0.04299775163971929,-0.04146024933535423,-0.04055905397166697,-0.03930443691084494,-0.03658369165027571,-0.031206191696516495,-0.02282741606657542,-0.012569887395109508,-0.002110857503888987,0.007596019169286646,0.016795304812850055,0.026169024064572576,0.03587803496301546,0.04596429706386314,0.05690494045036118,0.0691321799043181,0.08286207914378624,0.09825139080764972,0.11484522881957818,0.13123063867595516,0.14556765250585654,0.156199661464774,0.1621727993838085,0.16380220368041876,0.16268989557450025,0.16063123136833454,0.15802005653451048,0.15364871819027914,0.14648464431400068,0.13680065658667134,0.12500185647756076,0.11056945308603273,0.09266020841715628,0.07095627418001191,0.046138341340217034,0.019936215559031203,-0.005458327327377242,-0.028319504338404418,-0.04823127411150804,-0.0657297485759523,-0.08087142979364373,-0.09307720101008594,-0.10238548045622078,-0.10962295398532321,-0.1152823977807261,-0.11913131797872395,-0.12073974956800497,-0.11972576501371865,-0.1156971314136225,-0.10865530816589573,-0.09958935963896963,-0.09009637246306929,-0.08138675751986318,-0.0737465352896494,-0.06661483068589319,-0.05924991879003523,-0.05115340274609248,-0.042005053841256156,-0.0320470969008189,-0.022510720556212845,-0.015187553010587574,-0.011111436550147317,-0.009428176744567704,-0.008077429802378916,-0.005384607699036679,-0.0005781622541100387,0.00609022572240096,0.012982643085751564,0.017848960582287517,0.019562545825860395,0.018494651096077085,0.015467791635765815,0.011444060297030325,0.007969662471021325,0.006766140413915921,0.008411366366599797,0.011846665693375147,0.015355659014490038,0.017621192844863902,0.017972791670880353,0.01623309434705888,0.012974601914320509,0.009685049119706166,0
-0.0013243660815875388,-0.004332138000740197,-0.006363426500261622,-0.005978153934342418,-0.003119860787828676,0.0007332088751597133,0.003568250741506058,0.0042618750242108695,0.003080004666286023,0.0010217333779357174,-0.0006521655323671393,-0.0003063288626451791,0.0035252441864660478,0.010857368369291303,0.019811770879075458,0.027489297717821683,0.031209901907845224,0.029444432282531664,0.022267621753850782,0.011320882305000064,-0.000803809355866929,-0.011758471557214795,-0.02059544160474014,-0.02789495298803672,-0.03475895218743438,-0.04187616797119595,-0.04941255128405497,-0.05718885505464858,-0.06464280457313518,-0.07090788262861919,-0.0753358185187493,-0.077753624035562,-0.07819979871353562,-0.07723414175934945,-0.07637102608351883,-0.0771547667471279,-0.07993656191678268,-0.08422075403228388,-0.0900563982999008,-0.09809477634418136,-0.10706555135253108,-0.11042681972342981,-0.09506047005106792,-0.04474571095044022,0.05045132298133431,0.18446120975816369,0.335022011219906,0.4745896390140597,0.5825899452871788,0.6478305138203286,0.659310864464967,0.5978114697818867,0.4431177720400137,0.19626974990707646,-0.10094417346069882,-0.3708103445283574,-0.5343319277661576,-0.5542431959265952,-0.45436143477577484,-0.301571159634485,-0.16557857603536258,-0.0849521579608087,-0.058556640253228154,-0.06195021153514502,-0.07134263686438705,-0.07584074391549842,-0.07527549799734948,-0.07328916111414523,-0.07245233197588048,-0.07295951173003536,-0.0735950561348301,-0.07298839915572354,-0.07071646576884488,-0.06772987996882397,-0.06526856319754591,-0.06343796797765174,-0.0615517695802966,-0.059629677656040665,-0.05836690866653664,-0.05753378608669545,-0.05550626080174543,-0.0508112426087277,-0.04349052929348177,-0.03455823034124415,-0.025091772340441715,-0.016306094426142215,-0.009157637157653716,-0.003372055338229322,0.002585630065214799,0.010673781290398083,0.02206410832633899,0.036283050108440934,0.0518358736763946,0.0674060399438238,0.08222986539769678,0.09593140874455124,0.10830281326792329,0.11943349790599811,0.1298970217560113,0.1401282644027709,0.14979006798877814,0.15817075717650447,0.1646908655163999,0.16858274050090988,0.1685726337528761,0.1637071773291026,0.15444024419107233,0.1422473517139544,0.12845932973420948,0.11372963733060895,0.09802163023922622,0.08102827913879335,0.06256792361975533,0.04246555833085733,0.020846513451452667,-0.0012406696883961663,-0.022367124474606554,-0.04207144099171372,-0.060809971210759164,-0.07835853717027033,-0.09334370676620568,-0.10435617405358917,-0.11062680912420692,-0.11237096585573357,-0.11124263093008932,-0.10954189604355972,-0.10841298741629844,-0.10741525646325267,-0.10562690294608777,-0.1022426011540169,-0.09654451524878821,-0.08816945326625197,-0.07758110621099823,-0.06633098557132036,-0.05656546261489529,-0.049813781816866756,-0.04594709963442303,-0.043006690499315645,-0.03832940688782507,-0.030406182302430085,-0.01969763306218339,-0.007951012013329461,0.0029360968537997783,0.011565329776971911,0.017081071022005942,0.019381746629912544,0.01915933149548698,0.017386517458339457,0.01524067490535495,0.013955751900833365,0.013831667876402103,0.014067481587985693,0.014160738043652255,0.014558198147464658,0.01563900392964599,0.017022274975121737,0.017891690900869256,0.017585084203073652,0.016128525995480775,0.014196714718763914,0.012514092121597233,0.01129436359326932,0
-0.005715635576393422,-0.00611089641845572,-0.004509486106590387,-0.001258520557062531,0.0023031968632062742,0.00406422505084157,0.002667772172277398,-0.0009511026557827919,-0.004090999194789551,-0.004299021506706212,-0.0009830916323693695,0.004188480926861779,0.008590314161123366,0.01088958528603984,0.01193876476802673,0.013457708605242362,0.016129962731928148,0.01898033954767639,0.02010260743315557,0.01798599450729215,0.012541577106977182,0.004608923202875837,-0.005334143738965233,-0.01711118463130086,-0.029790429410121416,-0.04166153425841804,-0.05128355238536874,-0.058165018907495925,-0.06264179219158113,-0.06539096315793347,-0.06707306169941064,-0.06838493415397551,-0.06983918165955603,-0.07135862622846562,-0.07281747901864352,-0.07448838204716732,-0.07654184359359378,-0.07923428408230643,-0.08375278220164079,-0.09173266568757146,-0.10296871734564206,-0.11216817579259639,-0.1067222050910335,-0.06924413778949626,0.01326166595693147,0.1385241798557887,0.2860676773180424,0.4267583544001454,0.5377889122083501,0.6093896537948279,0.6361690915440519,0.6034603582141097,0.4878339575065141,0.27740352265703405,-0.0033616874283603024,-0.2877447786863789,-0.4921802067687843,-0.5601231967657675,-0.49340430092511195,-0.3481712001694034,-0.19902421744130327,-0.09795149911156932,-0.05588288972240784,-0.05322442714950216,-0.06382730679458633,-0.0721371704216201,-0.07500414550928762,-0.07492095321917802,-0.07427793124202249,-0.07358070823310461,-0.07214353595663774,-0.06906258190489079,-0.06397229864614802,-0.05770901078384121,-0.05219673239504234,-0.049281898686309625,-0.049165781708810134,-0.05019510334538223,-0.050394166655647325,-0.04861964495836872,-0.04471836288838583,-0.03936243932049293,-0.033444830495845124,-0.02757975116026983,-0.022273072089540966,-0.01798675530326517,-0.014626793890271791,-0.011243802115833685,-0.0063952595780707895,0.0012511891291979473,0.01245298304513886,0.026951338062976678,0.04336495588167302,0.06002584522611072,0.07558163770186592,0.08894138395168269,0.09991726222427431,0.10962344173919268,0.11947398060294126,0.13014052128319226,0.14136334350936444,0.1522202624333352,0.16146584081055929,0.1675542353907865,0.16886913625589775,0.16494932740015464,0.1569052719554012,0.1457511444856412,0.13178738221663458,0.116076051608473,0.10020699738731478,0.08434813380365756,0.06725491942635356,0.0479081060480671,0.026365301035335638,0.0034936093111135567,-0.019726967180840632,-0.04248078601581029,-0.0638040366852822,-0.08243509222022793,-0.09712566608045958,-0.1071655075250699,-0.11260570596361154,-0.11414100251403193,-0.11327123434226369,-0.11194695193762505,-0.11117197548306772,-0.11055129600726185,-0.10920853595559207,-0.1061714153559955,-0.10027223035882421,-0.090850195952231,-0.07890461684488137,-0.0669608889127059,-0.05717272002409415,-0.04974351569763623,-0.04348862771419714,-0.03755712017487097,-0.03174806196959857,-0.025469258384550178,-0.017925257071120117,-0.009284184299587253,-0.0007442379370770271,0.0063503269216104215,0.011287739333303445,0.013978259323718652,0.014351370418596578,0.012545672105995241,0.009809625368836786,0.008336178703681082,0.009680100804132497,0.013519419574817938,0.01816946125113164,0.02178346042715705,0.023135301582031212,0.022156610942070463,0.01963076498142692,0.016530844293925404,0.014010070660035791,0.012938662479407902,0.013137550309935218,0.01380900599736598,0
-0.01080285507969903,-0.010249309452883612,-0.008208002260949986,-0.005721553476819451,-0.00385040234466554,-0.0033757257774263342,-0.004494993034855278,-0.00657803148209572,-0.008453407358432162,-0.009447575330482207,-0.009889355787647448,-0.010084059951066577,-0.00942488618387712,-0.006672870737804992,-0.001077922427552976,0.006404105629752589,0.013482390550513057,0.01811882970898326,0.019225866436356966,0.0165264153462768,0.010542691678354997,0.0021592498434696824,-0.00809787299134866,-0.019649512302796296,-0.03115641211029863,-0.04130053205377549,-0.04980882015597488,-0.057154174876819945,-0.06371739261866452,-0.06906994906110585,-0.0720537592406071,-0.07226615245147211,-0.07109470496211744,-0.07072098551220427,-0.0724525150130991,-0.07620571829788916,-0.08103458498314682,-0.08567116870047378,-0.08948852842629165,-0.0938275879279684,-0.10107375026374553,-0.11020219907807059,-0.11190324484582873,-0.0885408619663292,-0.021804228559783017,0.09522906087352444,0.2503701482585195,0.4163879592992563,0.5645409410949225,0.6748913018383846,0.7333657448441673,0.7215035227710509,0.6153289575605744,0.401572373648977,0.101063966210092,-0.22170195479969532,-0.47793602748427977,-0.5973677373433274,-0.5663123056852535,-0.43180212802766893,-0.26991257783826045,-0.1435591347282648,-0.07742425235931423,-0.060539417156289695,-0.06707745050150955,-0.07660809104999412,-0.08118577032371009,-0.08097547805515937,-0.07822492106848325,-0.07475538243022513,-0.07154547764335463,-0.068828089544116,-0.0664735217097923,-0.06432806190498437,-0.062322687168680314,-0.060469218221965465,-0.05884275153513239,-0.057522628995828204,-0.0563999423873104,-0.05490281860365958,-0.05210214533353908,-0.04748423407263529,-0.04147141898088373,-0.03487490717681996,-0.028184374069742092,-0.02164478766386907,-0.015666294538576837,-0.010622573138583898,-0.006038482635466549,-0.0004550413575899921,0.007639112106237024,0.01905818842896976,0.03377899539814263,0.05075573077564486,0.06798647997175893,0.08353094123575763,0.09662134908700382,0.10779094893165397,0.1181609368049744,0.1283440729152683,0.13790191706777102,0.1459919069858533,0.15216867251734842,0.15628833167322786,0.15786174404206715,0.15584351533129148,0.1494026412805202,0.13898755582381414,0.12629030335055136,0.1128888047039408,0.09935541035238422,0.08575132875923243,0.07193219028171624,0.05717312586776072,0.0402747392320032,0.020182519243527746,-0.0031566292098316566,-0.0279797655122104,-0.05134711742364017,-0.07093505878279863,-0.08575230250846085,-0.09582493908885822,-0.10190423782914868,-0.10501832675879738,-0.10619614646509445,-0.10654278569614767,-0.1069191490483177,-0.10732568037439641,-0.10684532606285935,-0.10425569828240112,-0.09864436661457965,-0.089872942030272,-0.07890004736375655,-0.06733824864319665,-0.05671565830999515,-0.04817814100228654,-0.04196030263975209,-0.036866253300102236,-0.03101443257508705,-0.023468530554925607,-0.014954475295898561,-0.0068692456997089466,-5.1871949941018416e-05,0.005042923079289463,0.00788238837435743,0.008421734088442009,0.007404032158935389,0.006137172869288211,0.006316500065916164,0.008932789586045138,0.0132625887463649,0.017520021548743957,0.02010509579626728,0.020458401984041107,0.019190362060306602,0.0172636386447821,0.015191932077741018,0.013120282279541933,0.011356470941566738,0.010507859218396904,0.011076454408872645,0.01300087547026426,0
-0.012636192613489267,-0.010023667568525543,-0.004242282124640104,0.0025898636456664834,0.007593895341519324,0.008352893842045612,0.004560645245133686,-0.0013440388904022414,-0.00581298011851446,-0.006713197167854586,-0.004138377558498762,0.00040231096892791665,0.00511680548204415,0.00907514488952085,0.012484597624618215,0.01579092591073071,0.01880279539767107,0.02060412663201137,0.020151840085774156,0.016858061108094603,0.01069253475032143,0.0021642929630479725,-0.007743194036750177,-0.017948787767657914,-0.027631570080780564,-0.03642349735728435,-0.04455567809977948,-0.05235993223381009,-0.059292793263315595,-0.06406792443606668,-0.06612926949874237,-0.06633114633519872,-0.0659254012870859,-0.06563238763292943,-0.06579873790546785,-0.06673008749562279,-0.06871512388600828,-0.07219812061673,-0.07788882684550683,-0.08639877199180035,-0.09708274037696657,-0.10529194864237965,-0.09966779767772661,-0.06424207625581134,0.012852196549773775,0.12982564698397647,0.2687936162014129,0.4030915960721268,0.5101577442499696,0.5791890819169824,0.6049712409121105,0.5750606392163757,0.46821242496546034,0.27194716707960126,0.006536775847658538,-0.26710099339383725,-0.46887847101982527,-0.5410873520388854,-0.4810123730189819,-0.3401605492351445,-0.19140332386913544,-0.08829345422344032,-0.044274145927736444,-0.041309043949962085,-0.05343284492876015,-0.063843078003782,-0.06780505744176568,-0.06743400995518924,-0.06573701474452452,-0.06375143679211254,-0.06105541039653131,-0.05728653258370369,-0.05309631753378648,-0.05003853097501679,-0.049437037362862805,-0.05147942082809837,-0.05538697988968339,-0.0601137438411765,-0.06449361459744951,-0.06684314979099905,-0.06537695647479794,-0.05969007228951162,-0.05146016480707982,-0.04315577525551685,-0.03645815452098049,-0.0321288913880276,-0.0301229366314157,-0.028984777995034357,-0.025764243240447418,-0.017406926207012265,-0.0028117786913239816,0.016363815845130955,0.03682219995011954,0.05564052572876642,0.07182323647360019,0.08592730535719544,0.09836301593767982,0.10897916656383344,0.11826289305593525,0.12800821219679545,0.13987202596029272,0.1530527176130494,0.16460675402257333,0.17236360527239578,0.17583493906284225,0.17463109057625353,0.16859118797611994,0.15908389992596755,0.14815035238529461,0.13672689070965918,0.12414436275645432,0.10890237932615668,0.08988919115057854,0.06707407674766439,0.041685413121721665,0.015683388244403827,-0.009429923424181478,-0.03282251928389887,-0.053837340851483485,-0.07229880204646433,-0.08835042998093139,-0.10131846223487823,-0.10976032615230799,-0.11280206731531739,-0.11112878374789714,-0.10698647794744034,-0.10312703854913216,-0.10127544640972698,-0.10090970083227394,-0.0994859771587257,-0.09478649192572365,-0.08688943886062392,-0.07765851188912676,-0.06928595922867031,-0.06303859156568274,-0.05855829529573841,-0.054474405414455945,-0.04972775239733796,-0.04434058376546608,-0.03899313969521042,-0.03386511153228054,-0.027968414423835967,-0.01995792726087651,-0.010120244693495583,-0.0009250524330679903,0.0049909478129424815,0.00660643660524142,0.0048573272782087284,0.002371063738810972,0.0018467051388020815,0.004143567597141377,0.008395409421401637,0.013097297497413037,0.016841044381674206,0.01886598522894568,0.019122380675498776,0.018045955720681423,0.01640630492133311,0.015200502951694533,0.015462159767461563,0.01756744873558743,0.020657928603910157,0
-0.004151189898253671,-0.0032464303864040015,-0.0019773968809529627,-0.0012801842628256208,-0.001870534776275471,-0.00362953360695779,-0.005434867301978199,-0.00583852525198928,-0.0041597582308422,-0.0011157386551834425,0.001617732329939175,0.0025832702484044406,0.0018601157146183344,0.0013915881452729764,0.003283021052420474,0.007845652045123474,0.013698308175601252,0.01875249385296602,0.020682994079320453,0.017802952976220254,0.010161137060549124,-0.0006589843061965374,-0.012886306204158478,-0.02506544542138733,-0.035536861310856815,-0.042915702500827164,-0.04722341187164354,-0.050101982207143535,-0.05380735645494233,-0.05941501564171331,-0.06609546208203176,-0.07200692645370096,-0.07560092821671535,-0.07685547968112609,-0.07701538496269321,-0.07662819219294462,-0.07511461854576178,-0.07295964963925328,-0.07337130663278911,-0.08061147061977138,-0.09505688477506782,-0.10808050589285084,-0.10146920222759925,-0.054221016299505466,0.04511712500094164,0.18819708829435944,0.3476328013086033,0.49000409716989374,0.5919130587976399,0.6451831348238094,0.6458184919711976,0.5802742528332338,0.42853255836537696,0.18684341191342588,-0.10855004920837803,-0.38228573639129465,-0.5532706904748125,-0.5791846608042566,-0.47930383348358063,-0.3197590782010226,-0.17354483289422315,-0.083744161642366,-0.052461073961089226,-0.05648599777459578,-0.07075186682527082,-0.08087092149516761,-0.08283957385118822,-0.07816176554556002,-0.07012521028278151,-0.06195393928119382,-0.05597611614068282,-0.053430689968352686,-0.054279550369020935,-0.05719494302740325,-0.06029660782856796,-0.06193584504592825,-0.061182876408938866,-0.058137808742695876,-0.053683878850822306,-0.04875188152446733,-0.04395483707215546,-0.03994030348979126,-0.03747650337162227,-0.036535578199428695,-0.03562857666031628,-0.0326674273799389,-0.02622852416975037,-0.016125609962991068,-0.00342789460221744,0.010359733991674664,0.02432177431037337,0.038191361930128294,0.05194232089075382,0.06588534926475736,0.0807240547263728,0.0964971439558124,0.11202618587543094,0.1265079838798919,0.14031925502597084,0.1534079953056394,0.1645804244438286,0.17260342376977414,0.1767616567677065,0.17675809226560465,0.17276182280466323,0.16552261578338964,0.15663532645896072,0.1478733577457391,0.1391868993196823,0.1282751417498173,0.11279916011901363,0.0918774411680939,0.06595552757080704,0.0371784147767628,0.009039351384261173,-0.015895440001443203,-0.037299632365903376,-0.05616636579910917,-0.07331765643273466,-0.08846703483483402,-0.10061149801048397,-0.10931870815636978,-0.11510225051940434,-0.11872238226848503,-0.12044466711544732,-0.11991877026567765,-0.11694162926821466,-0.11183389759022883,-0.10487362703685607,-0.09650547431459176,-0.08817689592474268,-0.08160195550726909,-0.07695977712002423,-0.07286627816094139,-0.06787462703696626,-0.06102694676298803,-0.051736617199045105,-0.04025939148126753,-0.028177162026074988,-0.017906788241281762,-0.011195142015931584,-0.007870676985780863,-0.006439781978459175,-0.005602564956846717,-0.004346141358029439,-0.0016630874649400627,0.002594602621155408,0.007615926614970386,0.012687348052075635,0.0175028657480477,0.0215605050169951,0.023881413812987962,0.023728464494128538,0.02161640267570402,0.019158203383358205,0.017590036492243794,0.017076226057919315,0.0175941765402187,0.01907700652103725,0.02070470607325551,0.0213318755473523,0.02040836182857486,0
-0.008021253689764609,-0.006428936074954065,-0.0023726033447030908,0.001800323783113395,0.004331615002104168,0.0046580809019062756,0.002732632085941324,-0.0006828127353321559,-0.004052622337631781,-0.006168054977013678,-0.006536376106843339,-0.005105691605997505,-0.001964586277619198,0.0030612913721940454,0.010072846509770066,0.01810434970501411,0.024958009941970324,0.02812814977839081,0.025833591001886733,0.01757764394333275,0.004532580341163378,-0.010371396878763175,-0.023703260826085735,-0.03349464258051009,-0.03974318199758447,-0.04360627735395031,-0.04672506318462588,-0.05051702883078499,-0.05552769413283326,-0.06176085376269075,-0.06917795480841384,-0.07724088251636756,-0.08458547917953826,-0.08956901795195997,-0.0907479337834448,-0.08741225153107589,-0.0809343214509141,-0.07549736470754771,-0.0765389604475726,-0.08777705891517228,-0.10770764212171308,-0.12584196416641868,-0.12190299676605232,-0.07267857758014806,0.0344666523156603,0.19080413097716895,0.3677913060380511,0.5308684530784377,0.654745631567028,0.7264776310495006,0.7345170989626372,0.6595588914199001,0.48277245897522825,0.2087517274970606,-0.11567480927013166,-0.40785273396084293,-0.5853480739308382,-0.6096620151641587,-0.5059157148445816,-0.34441945976179594,-0.1985626820825822,-0.10907263641902089,-0.07579229593849791,-0.07509092148101346,-0.0832050243607863,-0.08766355150710839,-0.08604671451354831,-0.0807743979060019,-0.0749225552086038,-0.07033148012011832,-0.06756096737087151,-0.06616427685934104,-0.06503671111218326,-0.06317697419536733,-0.06027843501193458,-0.05658386288280044,-0.05266143710411359,-0.049431896267748264,-0.047410718137879046,-0.04599168847505111,-0.0442347734046691,-0.04166891783209105,-0.038166666112285585,-0.033779325589980945,-0.02836368754880307,-0.021286859802884285,-0.012253854436171547,-0.0022781623331563777,0.006923509488294392,0.01463412087217577,0.021824543154272007,0.030265541470829695,0.04157031214294456,0.056393112881145194,0.07357351800540166,0.0907021602417858,0.105902152569945,0.11873447415124443,0.12979585794131485,0.139719651785248,0.1482553605166009,0.15446335213726087,0.15771081472039902,0.15783827681822885,0.1548579998406412,0.1493172795509516,0.14235656831598634,0.1349695693367822,0.1274403665545818,0.11893530079621163,0.10772992637043924,0.09267238786740302,0.07396930947681608,0.05274585573716356,0.030535878380420343,0.00837903232206734,-0.013481902567676195,-0.0346851215273256,-0.05464778413468612,-0.07301465447721284,-0.08909570963335091,-0.10159149912030745,-0.10962382741801663,-0.1135398357752408,-0.11454330273050582,-0.114078535504798,-0.1132430230307342,-0.11206257828944245,-0.10972758818768481,-0.10551899922750786,-0.09921360092394495,-0.09124073976728678,-0.08230512804271775,-0.07273420432939733,-0.06269328471519602,-0.052488371828078556,-0.042346891055563544,-0.03246608698509278,-0.023419781686367255,-0.0161272216458669,-0.010969743905742424,-0.007074713313904796,-0.0029834890662139638,0.0021496280776699753,0.008339812191364909,0.014879474073503094,0.02011345348942585,0.02235628710081333,0.02163937108095864,0.019511739617386708,0.017089090428358197,0.014629264004154756,0.012806583914570813,0.012753462290461905,0.014732024426604453,0.017662222342429312,0.020142247021386235,0.021552051093997937,0.021760765587475153,0.020322157611375718,0.016841686962957556,0.011821871501792276,0
-0.0014423907284425398,-0.006206651443051024,-0.009155996290063056,-0.009165104415253134,-0.006584876758619996,-0.002528730477798269,0.001856803118603585,0.00562420264026605,0.00787795769008846,0.007985560567505335,0.0058625152145921275,0.0020349422412029006,-0.001932720525081339,-0.003516401417057972,-0.0008286259810727498,0.005976005553867623,0.015014740969482854,0.023563302943216687,0.028563463709935125,0.02766740983218062,0.020644174246436144,0.009350749632978878,-0.0038266626912752694,-0.017293021225241942,-0.03020829867015208,-0.041755345770669666,-0.0509301123180985,-0.05690861426118555,-0.059694299775339195,-0.06063821070884621,-0.06168634868650813,-0.06398765177762115,-0.06778066312990683,-0.07275429768576118,-0.07751650293834267,-0.07980540193782792,-0.07849398651964644,-0.07524174431194654,-0.07419668111122757,-0.07981908978389737,-0.09291554757646721,-0.10651046752617183,-0.10491217009345535,-0.06849009277169608,0.015995903382163317,0.14456254027007145,0.293844987677628,0.4320907557141638,0.5358602824632274,0.5975549799336831,0.6157701236624747,0.5794224389478094,0.4663220652785687,0.26316723749826354,-0.008512770105213065,-0.28487621226033105,-0.4836043119458461,-0.5478378112601798,-0.4791190361161286,-0.33359177249820643,-0.1857830096852804,-0.0880311095028383,-0.05137886636848611,-0.05498057368366768,-0.07062396432277825,-0.0810004844042716,-0.0822939762202736,-0.07785496866012383,-0.07213806501973309,-0.06779826126340968,-0.06536749196507251,-0.06447690385995351,-0.06481126928834055,-0.06578256297298443,-0.06633494884537024,-0.06556193825084111,-0.06310917310583886,-0.059363309958735816,-0.05525279536780689,-0.0511936665109617,-0.046855397504215225,-0.04230226545723561,-0.03814487081790511,-0.03436585145514944,-0.03016377155997723,-0.02496959240827276,-0.018687169283720453,-0.011268008602161093,-0.0027356825646641467,0.006862864862489396,0.017619892864044334,0.029471269694696114,0.04219896495320013,0.055885953694338825,0.07067393069463652,0.08600336799993713,0.10104730556544426,0.11577822291224737,0.13026694531363558,0.14360857102425406,0.15464848042988855,0.16261846658378784,0.1668350684141068,0.16711256296082233,0.16453030578637556,0.1609337879041386,0.15745541483913741,0.15372635002462207,0.14830019542064485,0.1393570337624662,0.12522041536146067,0.10506823881689586,0.07974862775847712,0.05155769123594071,0.022795994778286206,-0.00501124876914839,-0.03063979462291705,-0.053058226688959126,-0.07185439316626921,-0.08690267814793609,-0.09788464777952441,-0.10500036879202547,-0.1096039210650633,-0.11322517924288247,-0.11646218992023075,-0.11907974250211141,-0.1202408083623256,-0.11853808995987807,-0.11274451826722112,-0.10329729081586608,-0.09285204807667008,-0.08456509283795123,-0.0797700775650736,-0.07708075649901994,-0.07327844773779184,-0.06577770761542981,-0.05463146121425546,-0.04200960049501892,-0.03019492865899248,-0.02037125037007467,-0.012847324429435219,-0.007486045065923826,-0.003834504904815855,-0.0015500076675760803,-0.00035057186816914686,0.0009215339188579207,0.004057447135558329,0.009430743689040566,0.015121433362643807,0.018652460485668515,0.01897797250164341,0.017017053454948607,0.014874482836972834,0.014149213518673287,0.01484888293099541,0.016066927068692918,0.017127786555445446,0.01787795141224479,0.018433662738520186,0.01895598337993567,0.019532326748857715,0.020042658100144856,0
-0.0017611445919948926,-0.0007756973858253128,0.000500106617196974,0.0022747757767614335,0.0037812079663715266,0.003155549186776861,-0.0005174604713277335,-0.005310318840668457,-0.007943815876218561,-0.0065807396670960906,-0.0015527195606135939,0.005253780591670521,0.011161392766133715,0.014371027030353308,0.015509968152804001,0.016679581655029675,0.019065226346002367,0.021926103978094653,0.023148225574306867,0.020413204013029016,0.012620273466607428,0.000738149076696442,-0.012584519916586663,-0.024282985948265858,-0.03241019911631374,-0.03720913054836753,-0.040664331441153896,-0.04462687943417178,-0.04941340019497602,-0.05445701216310531,-0.059704364873873476,-0.06553148203732698,-0.07186616328977613,-0.07790976949994116,-0.08235864487337907,-0.08415794254845657,-0.08353972809925812,-0.0823419656818054,-0.0833221612168137,-0.08920308842733032,-0.10092930544698218,-0.11402565022798636,-0.11561345357454922,-0.08687237950381303,-0.012315843950420343,0.10881463352825049,0.2576530847630477,0.40313976363195364,0.518088944291913,0.5906496076580992,0.6197739703196715,0.5996671173602967,0.5118501551451448,0.33760786687067557,0.08398292015379534,-0.1992407511785463,-0.4320985992968088,-0.5447434142655732,-0.5176970604917721,-0.391201881256551,-0.2378313980629897,-0.120354297127922,-0.06370156165474988,-0.055737604496025314,-0.0690392735071908,-0.08211725096165062,-0.08642303633861503,-0.08271967317278131,-0.07521539123669209,-0.0674202007627579,-0.06100593811918382,-0.056650545775653885,-0.05459508781478811,-0.05466065104739618,-0.056317074700147345,-0.05848702289775861,-0.05966523323321156,-0.058972110146129755,-0.05684437400157147,-0.05445614218404575,-0.05278827802662588,-0.05193475735015631,-0.050767457786466325,-0.04765105195686709,-0.04168311332708084,-0.033149537364556766,-0.02310505754082628,-0.012540344993238228,-0.0018084481424376388,0.009207133655140353,0.02051252150879673,0.03153879935128548,0.041372953975752795,0.0499158362095352,0.058670246805101134,0.06994282461047507,0.08546690324337446,0.10527149883486604,0.1267474995413613,0.14548340929305129,0.1582361809586504,0.16483552564107018,0.16714049441030865,0.16706412520862648,0.1659047387554402,0.16457619329516704,0.16329084954017006,0.1610500737905633,0.15618751362550928,0.14744874701321045,0.13404295436221142,0.11514619777944542,0.09073780632038234,0.06260733362611721,0.03332729243080661,0.004937096071872107,-0.02087412434417716,-0.042723139988733574,-0.06051111319570809,-0.07557077138155902,-0.08898815332892723,-0.10042256940525732,-0.10907517218081375,-0.11476312223830262,-0.11771364855226114,-0.11820421827079108,-0.11665675954039681,-0.11366251826857432,-0.10976553812285043,-0.105340686818822,-0.10035115869247775,-0.09419366088291317,-0.08643277068119891,-0.07759789098502193,-0.06885397981612972,-0.06109287109329675,-0.05409837185538873,-0.046294516212189246,-0.036270098783797805,-0.024927570064689965,-0.015060632298536023,-0.008877487671209085,-0.006780133400869713,-0.007651804003002985,-0.00910904903375306,-0.008273036048300701,-0.0036062170677884035,0.004108012655186538,0.012776072528330523,0.020097126656660844,0.023940602234965407,0.02341000684548918,0.01988398059451199,0.016293875666121366,0.015225669693832697,0.017234664815007236,0.020583365410182138,0.022819522164024532,0.022742432218214176,0.021031017079961436,0.01930468685162543,0.01860301349134729,0
-0.00656076116289594,-0.00691786425534796,-0.006897798809473019,-0.006542752609174259,-0.005470440292234682,-0.00352898004953932,-0.0009957472343196708,0.0016440428771204814,0.0035080508250173027,0.0032339155981587816,7.229743044185688e-05,-0.004875876869327911,-0.008998087479275966,-0.00949147470222277,-0.004946888179952681,0.0035034939811172346,0.012995256503077979,0.0205973598598575,0.02408901578654435,0.022282117058514607,0.015164664168538474,0.003635675775662272,-0.010841640320346572,-0.026231509498221797,-0.039969901950217865,-0.04985744500225584,-0.05547065053816256,-0.05853995682063844,-0.0615167936812403,-0.06562242886674494,-0.07008505805301504,-0.07342794139870164,-0.07556673100963872,-0.07765735507614989,-0.07998552370552921,-0.08145910351015477,-0.08128878559692859,-0.08064924113620424,-0.08316975311180133,-0.09318944809664569,-0.11119818486484057,-0.12948764516810135,-0.1316280109323193,-0.09696432252513035,-0.010499360232565496,0.1256779652616123,0.28942052725511863,0.4493190624209159,0.5804886663224499,0.6704030467712714,0.7101260676025806,0.6824695272087219,0.563394900179472,0.34137268321048925,0.041537207707065066,-0.26759270697122234,-0.4982358815468929,-0.5879365317543863,-0.5337113141857138,-0.39030268768565746,-0.23488147433020862,-0.12444819210427618,-0.0742726126729768,-0.06661275839412781,-0.07513442841030574,-0.08268163169438994,-0.08400938821785477,-0.0808764406333834,-0.07688050413349644,-0.07401180493304231,-0.0719171796089232,-0.06941323021623831,-0.06604769323670971,-0.06234138761331403,-0.05918200901403034,-0.05720331090969053,-0.05637172157414508,-0.05618779870520719,-0.056288519835509164,-0.05652106002432794,-0.056453137093769395,-0.05509546152257269,-0.05131920370895318,-0.04455329688981051,-0.03525841395732374,-0.025022760951944965,-0.015847838057694456,-0.008771366429719223,-0.0030773892247302793,0.0032556064690895756,0.01226625722035582,0.024590602423916967,0.039259663209259985,0.05495720857736309,0.07089934597761278,0.08652056841214033,0.1011799982015204,0.11470156956826992,0.12768077547759812,0.14048494630665095,0.1521467682393244,0.16085736733536096,0.16558124691971096,0.1668844397856864,0.16621639705983998,0.164545948572501,0.16153230154577525,0.15608494335629802,0.1477021878394789,0.1367890037469915,0.12388832918698714,0.10903062643098108,0.09151348299294534,0.07027449846493034,0.04505843666160138,0.017233749225479267,-0.010813524190092332,-0.036778445240309786,-0.05921888012715149,-0.07795947764436817,-0.09354991055529323,-0.10623019523989805,-0.11575407912371019,-0.1219192053828963,-0.1246255986482049,-0.12379530575229841,-0.11999272534000022,-0.11469887890181207,-0.1095384000489153,-0.10548590337538552,-0.1023362540592745,-0.09847996493628026,-0.09215120723315254,-0.08339670228156627,-0.07388345835293722,-0.06471421994828484,-0.05560173168253531,-0.04605906033202761,-0.03617340208374512,-0.02638625536174041,-0.01743131459760376,-0.010274589452818887,-0.005398146914154066,-0.0021678749780647995,0.00077181538116383,0.004504867050594474,0.009188284369627837,0.014223951801985773,0.01880819834974897,0.022218180072747555,0.023848869182528307,0.023167275248274406,0.020165923685026912,0.016197697384282984,0.013740360361134239,0.014642860347916575,0.01832780079224615,0.022023466116473267,0.023236296619697186,0.021655578225439294,0.018385265553931024,0.01445391085107195,0
0.0004892409785086571,0.0003328322351269032,-0.0003316569961292706,-0.0006928140567823494,-0.00023775962056802696,0.0008609586869321021,0.0022426652394506937,0.0034155050812875393,0.0033971007967117817,0.0011875558980823445,-0.0028442418013648065,-0.006644891672972909,-0.007706860738555478,-0.0042799964780950136,0.003687122865725463,0.014060281193230169,0.023470883944135462,0.029102449493829074,0.029762452637506397,0.02561777854110489,0.01735826745933276,0.005985677865486954,-0.007181092248064418,-0.020948705949453382,-0.03426240238588295,-0.04571056957704063,-0.05383067067740158,-0.058166425835599854,-0.059724276069972916,-0.060539155913187204,-0.06268219756277142,-0.06697973809513456,-0.07250297171138696,-0.07755044144759089,-0.08098200026835306,-0.08262665796402163,-0.08315745683106926,-0.08383041050319802,-0.08623988478216946,-0.09226347361529566,-0.10253116748060262,-0.11245968527071952,-0.1093169566562882,-0.07523338093201135,0.0033555758287902426,0.12529859324032508,0.27149550897703295,0.4133914102138427,0.5276331545091466,0.6036152998700018,0.6362603642141379,0.6126015039850012,0.5099940838668015,0.31394196527080803,0.043333184308392156,-0.24056219894854586,-0.4556111074629299,-0.541061056064101,-0.49156542635881684,-0.3573968331434117,-0.2113139680647777,-0.10771113128902138,-0.06162737781150375,-0.0564615047292352,-0.06683573971931296,-0.07566577662918546,-0.07726250063666527,-0.07278943965108085,-0.06578850051451189,-0.059961471425917456,-0.05783695477912705,-0.05972280490145468,-0.06400250086572988,-0.0684147304135366,-0.07096803749091449,-0.07065427692772404,-0.06789424366367793,-0.06380381782265014,-0.05941654401065737,-0.055902801082480455,-0.05425274142386627,-0.05431278197650753,-0.054635608735466405,-0.053007943271965535,-0.047373916364736854,-0.0371942660745858,-0.02399067423403787,-0.010267834404866498,0.001983814096849808,0.012146788113126967,0.02104116833889445,0.030182668379609215,0.04078783951651681,0.05322747163349818,0.06709757252297219,0.08175783546039078,0.09691994073211374,0.11216948753318992,0.12597486565289828,0.1365763193723792,0.1437512034471324,0.14878186503809127,0.15304968614651968,0.1567848443771005,0.15914789840025373,0.1596698627231297,0.15872174142213383,0.15621123579665452,0.15091886010073044,0.14137140324203792,0.1266875711899251,0.10681032024741414,0.08280072815543517,0.056915566090909475,0.03157953217418539,0.008205356832764917,-0.012776599757592787,-0.031594761728099975,-0.04914607963529326,-0.06646393122694097,-0.08381902729411378,-0.10034196577214499,-0.11419270732777066,-0.12305046061732373,-0.1254571756957405,-0.12233927571937463,-0.1163620217626259,-0.10990003911085842,-0.10416903422889338,-0.09913718334989789,-0.09385986493157104,-0.08746902264144774,-0.07976194630529253,-0.07118148508464536,-0.06258650182625629,-0.054871245492219056,-0.04847417067121954,-0.04288024926655813,-0.03699795972826,-0.03033812005702814,-0.02341221046539495,-0.017200731872393966,-0.012472242794431185,-0.009107190476955518,-0.005932414530645212,-0.0014500919255266212,0.004958788878272209,0.012294230459981495,0.018517405984559365,0.021936218957256913,0.022157811515282944,0.020320508111836014,0.01850272556584813,0.0181164560246874,0.018748057917022047,0.019004785666043793,0.018072738842760346,0.015974891948774786,0.013114682658709177,0.010133772629897442,0.007583474115220634,0.005756752566623132,0
0.00033503858257872567,-0.0025386881832084483,-0.004766026238621947,-0.005066487263608799,-0.0033363487449534247,-0.0008389373175198577,0.0007347372130336804,0.0008334214528933717,0.00018238216424777643,-0.0007728495946671646,-0.002472632497752285,-0.004918230672591406,-0.0067598140881232095,-0.005853878434145251,-0.0003478126719485108,0.009910565894758338,0.022189095671533945,0.03153168442262677,0.03349422403012854,0.02693061130987211,0.014397753015030913,9.660622712076398e-05,-0.012458059914282353,-0.02176288484782377,-0.028401364660849786,-0.03372821218306394,-0.03871712270139675,-0.0440641673875114,-0.05027611301325187,-0.057479752362759096,-0.06533171394553546,-0.07289775015060246,-0.07920057808456084,-0.08380525194253817,-0.08631940666654853,-0.0860936988819855,-0.08310185164079543,-0.07901007090350234,-0.0772012803802647,-0.08144302086343384,-0.09360969113908352,-0.11026752891874893,-0.11935001630103588,-0.10136566262648761,-0.037604620742446276,0.07802260803295333,0.23133221511377738,0.39215422634686875,0.5293016411217556,0.6237689295155379,0.6683561971465616,0.655636130105502,0.5693928528812103,0.39318362213130653,0.13345665348599048,-0.16275626372082985,-0.4169524353752155,-0.5562072565511537,-0.5537104808958521,-0.4421400161993134,-0.2903922186907995,-0.16282758104732326,-0.08984773906304169,-0.06548506218219043,-0.06639071298024539,-0.07276370187417039,-0.07618871136102788,-0.0762248108788689,-0.07523627930370148,-0.0751156059049266,-0.07567908432556113,-0.07544133660293696,-0.07364800977044489,-0.07060398434872368,-0.06665773086078551,-0.06203162830526084,-0.057075201993291504,-0.052238761332450326,-0.04820635562540514,-0.04574898808797687,-0.04478208077840023,-0.04391827822191416,-0.041644600309612714,-0.037468887532641715,-0.03162683854783695,-0.024466109004472533,-0.016280159641000252,-0.007652847629062116,0.00012548942475297357,0.00610388736373344,0.011143708483480655,0.0171941707408295,0.025879464764793657,0.038409571710447114,0.05524848129567095,0.07547011609613265,0.0973533660546258,0.11905510104668751,0.13841463677579502,0.1531868029589983,0.1620015985973997,0.16512800305220637,0.16441343392729219,0.1625327007217141,0.1618710231815589,0.16289959811840138,0.16349573390230335,0.1607357659609619,0.15303800064464865,0.1404449311021374,0.12381743357896516,0.104286846443118,0.08313818644717877,0.061337593364927445,0.03910456288380504,0.016418212471758172,-0.006542403512887762,-0.029540634185160772,-0.05215265551354694,-0.07344386320228752,-0.09207316805287102,-0.10678318091310625,-0.11696037771063085,-0.12272810065264665,-0.12452245970902019,-0.12300651401049235,-0.11925663343292287,-0.1144548864723357,-0.10922843802355545,-0.10352335854780631,-0.09718334072415073,-0.09018435073887886,-0.08256252730122243,-0.07471663820388133,-0.06718808421794988,-0.06004252334914229,-0.053228021705564475,-0.04688222707687778,-0.04081496285642167,-0.03457694852413476,-0.0278438771453045,-0.02039786220144285,-0.012276832585882438,-0.003767198405920628,0.004820484807392037,0.012788058787317902,0.018536104103886175,0.02017273817345626,0.01719536505481352,0.011416018936560468,0.005895766536009485,0.0031804911866838304,0.004375499092545452,0.008943536726703404,0.015161544596991278,0.021120837684723833,0.025462356188757394,0.027657642026548926,0.027755841358030837,0.025761989948360653,0.021814382800843433,0.01696082704505298,0
-0.012632354719266511,-0.00967261915604503,-0.004691967629218469,0.00028722232194162544,0.0032868476533691095,0.002818140568781572,-0.0010920024842606987,-0.006032617727310216,-0.008590318783417704,-0.00736530927987817,-0.003703119368616206,0.00040117339700456237,0.00396928874235361,0.007136853337040151,0.01070474824989564,0.015424843003828308,0.020994608973200962,0.025673299616394328,0.02694828753399105,0.022834126975805762,0.013449133901348694,0.0013015526810976254,-0.010762750576771462,-0.021676792749169022,-0.03203451868368863,-0.04263310909566608,-0.05337293404137548,-0.06293270111236321,-0.06922490376297359,-0.07077123532453336,-0.06833698054260458,-0.06482957636085096,-0.06329696085994498,-0.06557110911416444,-0.07207530336605425,-0.08143258144224652,-0.0906106822968465,-0.09669380068975929,-0.09917924739769889,-0.10088293476773064,-0.10563664947691884,-0.11266714969302592,-0.11122580334836836,-0.08139828093632168,-0.004388740859697765,0.12327884144900687,0.2835869732925864,0.4451886870615064,0.579391285885275,0.6697223993127618,0.7068692264362816,0.6767036107860298,0.5579841554252778,0.33872121206502226,0.041424458408125156,-0.2675588166989618,-0.5012675042065758,-0.596444317999131,-0.5474788111175795,-0.40560137681192515,-0.24593224908338568,-0.12721516453188358,-0.06972731827637962,-0.06033620964011406,-0.07364326927908302,-0.08957360697435482,-0.09816152138723774,-0.09683991389968873,-0.08738293396207751,-0.07419600743542858,-0.06240083104099218,-0.055112775052265466,-0.05213842923756894,-0.05148902048833344,-0.051753991612547956,-0.0528319473769564,-0.054984974260412614,-0.05796736211842026,-0.06075043274049312,-0.06149456155903383,-0.058459433692161666,-0.0517946761376246,-0.04392602787903787,-0.03726192981920787,-0.03185126948440879,-0.025709294880548676,-0.016778369438312186,-0.004457890799105874,0.009701614488058124,0.02249539637655546,0.03130685691166887,0.03632597112008616,0.04052127500456004,0.047644686589787835,0.05973651225820641,0.07588027013365836,0.09333653861702944,0.10977721055579176,0.12404470575414898,0.13542015259565404,0.14371021915990795,0.14972598932423892,0.15437585627491013,0.15760164072423263,0.1584006076187125,0.15548230050768236,0.148455471899257,0.13879240812780616,0.1290628536524224,0.12087584839325564,0.11366978905285136,0.10506075516450489,0.09222449333162501,0.07360732206442336,0.04958965146623098,0.021855834776888853,-0.007448927765306913,-0.036103672043066054,-0.06186059603482949,-0.08279676662413779,-0.09778472395848023,-0.10673001418186978,-0.11070260977410355,-0.11149998226343705,-0.11093887994192918,-0.1102917877833351,-0.10956694884134376,-0.10795397034046067,-0.10547654580027929,-0.10277066740007593,-0.09925019381315342,-0.0933382945858105,-0.08449142592651045,-0.07375159549679272,-0.06262091929827575,-0.0524116288127108,-0.04436982105274542,-0.03925524848116925,-0.03631566439928509,-0.03311722167215009,-0.027189856284522786,-0.018084465617649766,-0.007501881497766788,0.0024162948499528245,0.010437637301353473,0.01619797294366956,0.019880521216574167,0.02209572225578892,0.0232823169981093,0.023337419756690833,0.02221231068403954,0.02045826395142621,0.01919195426143354,0.019640384770570004,0.021951690537087218,0.024139211135918805,0.02318501058286393,0.017822736937919442,0.00973316973950392,0.002379936880455513,-0.0008916698518829898,0.000992562475736692,0
-0.0037130252850759715,-0.0010011728427842229,0.005251644557546847,0.012579999144661095,0.017377512623352128,0.01744237489194691,0.013507480896214782,0.00861161936831879,0.005834739710604041,0.006012093543508975,0.007516043368133721,0.00849969586426822,0.009177414303276968,0.011525910562018201,0.01690402753379116,0.024615015169199745,0.032314924257518855,0.03689123905027663,0.035651425519969686,0.02757277837421973,0.013585139637166704,-0.003740810661420381,-0.020755673181914677,-0.03413525897053193,-0.04249641993999699,-0.046794984278738884,-0.04930161014007097,-0.05225746063691923,-0.05700627379323511,-0.06337975296785082,-0.06982486709853528,-0.07491237876414218,-0.07850317560532834,-0.08103170185904283,-0.08246392795062112,-0.08240583242833786,-0.0807425668643206,-0.07869955147960682,-0.07976661506516633,-0.08780158245857461,-0.10215555005839534,-0.11352132983406392,-0.10428701133685046,-0.05578897959995972,0.03989074288150454,0.17248707643379,0.31749117883366923,0.44865114799129513,0.5491871289060822,0.612149588928899,0.6292885003225664,0.5810468124631297,0.44334190168298127,0.21212516485617672,-0.07439989376221065,-0.34028409364845325,-0.5064844462162603,-0.5332888308793258,-0.44079915220992655,-0.2934982607825867,-0.16112575649451377,-0.08351635493965535,-0.06034899745732952,-0.06672015988467031,-0.07721778818946626,-0.07934533184083767,-0.07290052501148285,-0.06331976316701102,-0.055519673367713115,-0.051332659720907295,-0.05034113490677347,-0.05158155450741882,-0.05432518662443671,-0.05761629159332581,-0.059801821457471205,-0.0591577362423365,-0.055070691890722626,-0.04870789154379439,-0.04236849903916509,-0.03832280889572576,-0.03816892403584368,-0.041627407866155916,-0.0454837454842207,-0.0453655017865386,-0.039035411339773715,-0.027498078899246367,-0.013791975092144762,-0.0011830410318458134,0.008726676562684705,0.016710809929236403,0.024799112042815222,0.03490780860527756,0.047992652027437785,0.06356359182307927,0.08009010895935934,0.09617116605157584,0.11114535102190685,0.12475805529180954,0.13637085473523441,0.14455223422782054,0.14809528990808815,0.147125481757628,0.14299246747443328,0.13789468380252307,0.13393162278302506,0.1315332368843224,0.129137494617183,0.12426025742418367,0.11475533992561278,0.10040310104833734,0.08400638798878174,0.06950436660830972,0.05811854628102205,0.04700416248175204,0.0319244245826045,0.010968012798132941,-0.014070052467069553,-0.03911718020224893,-0.06038776651379674,-0.07636854708059901,-0.08821144463037865,-0.09809924357243219,-0.10660285584241361,-0.11206130150467047,-0.11281932052848495,-0.10949079456679774,-0.10489564582663408,-0.10178899967474483,-0.10093994571268561,-0.10129941417147845,-0.10079643665891548,-0.09710159936800021,-0.08946499223298193,-0.07985103286377641,-0.07075772759725185,-0.06255846546201521,-0.05388597619596176,-0.04347428156192278,-0.031582841073459766,-0.020473053875191556,-0.012948022243110917,-0.009916868186264855,-0.009705538854135793,-0.009912550688621317,-0.009374576063473366,-0.007873906830399761,-0.004841994242710609,0.0005750602561824733,0.008260946981344818,0.016267684182782075,0.021567017809771247,0.02228216642336723,0.01931312445042384,0.015572582413206417,0.013770179915988728,0.015058391903762531,0.019162365646618038,0.02494705547127274,0.030734691632448376,0.034396864948396194,0.03390838721155539,0.028761095232011646,0
-0.0035118072877827625,-0.0054169341929390345,-0.007850446734888524,-0.008936998576681567,-0.006881829318906556,-0.0019674290643588873,0.0035947692638490956,0.007744313746174091,0.00977694984665017,0.009662874927688846,0.0074607912328107815,0.003555813930686536,-0.001172069636989803,-0.00505914388297354,-0.005519834040655354,-0.0004879460044242338,0.009469526810088131,0.0209304385877194,0.029461659314206644,0.03200782795718244,0.028351356473575215,0.02046404992939806,0.010346432959748493,-0.0013796442698779732,-0.01477447049487667,-0.029111859195549098,-0.042737906017496205,-0.054076331052498025,-0.062289188088067014,-0.06740585283065664,-0.07013319628702826,-0.07097643164268398,-0.07002344451515222,-0.06831934161579284,-0.06803111438205181,-0.07045040542690065,-0.07510757066426227,-0.08087131028292491,-0.08696211103548825,-0.09354139431639048,-0.10142428930422763,-0.10883898959473845,-0.10650634042919731,-0.07711139567119084,-0.003594013567922305,0.11777143661899447,0.2699890965108808,0.4214615001917488,0.5428503010114869,0.6198604778186523,0.6490443923228922,0.6232766284102073,0.5253008923228879,0.3390269000450622,0.07307123034170802,-0.22295678518578746,-0.4702527683195054,-0.5989424901671244,-0.5857962713828007,-0.46416383494728713,-0.3007867664120659,-0.15846466685649532,-0.06999389960718111,-0.035240565417901284,-0.03539071927694473,-0.04984485759484463,-0.06495906416265544,-0.07470582700365964,-0.07860076309621149,-0.07865462569787016,-0.07605972728337096,-0.07060223827908638,-0.06298498426651783,-0.05615078795778358,-0.05337153410260582,-0.05547577233825279,-0.06054048473594133,-0.06547555231666903,-0.06725538839613153,-0.06393838907470403,-0.05574803315218581,-0.045093594315118966,-0.035070221191709404,-0.027657370134586724,-0.023055861155466532,-0.020104065027373975,-0.016889742259094818,-0.011204253164654229,-0.00142385550179518,0.012107458607199298,0.026692962421988126,0.03898695206285814,0.04782130953645345,0.055431182243093444,0.0656200201519029,0.08086947563775025,0.10050901435325503,0.12099681661946464,0.13863387426363485,0.1518984568159274,0.16128822364855622,0.1684070622870258,0.17502876489558017,0.18153075797212612,0.18608315755144553,0.1859152554762629,0.17917173472436487,0.1657454147893961,0.14769410195952365,0.12891456825655012,0.11300089833805506,0.10082002426841753,0.08965632138296847,0.07443878057960343,0.051084138635515614,0.019906348028205293,-0.014193643870366864,-0.04504012491875455,-0.06875194377169415,-0.08515393113099062,-0.09684950859280655,-0.1068583786226544,-0.11681732684909535,-0.12638580796993326,-0.1333797042968962,-0.13511764165407608,-0.1305988280297745,-0.12197455304422183,-0.11381132431169468,-0.10999380759828602,-0.11037418436364302,-0.11020374229981206,-0.10381762050926599,-0.08966568695312045,-0.07170039369791083,-0.05610185080389933,-0.046669992846077535,-0.042563053341196255,-0.03975081437443728,-0.03438464986720862,-0.025327667634338146,-0.014784733474596481,-0.006674222019277523,-0.0034678727912272143,-0.004197067735270229,-0.0053522905403245585,-0.003705571577401069,0.00145861442129421,0.008493755008811102,0.015072981940719078,0.01967810058258654,0.022549582476803116,0.025519156448516205,0.03000858430088487,0.03501080370006383,0.03758667460390937,0.03547371647538462,0.029127717356836336,0.02158292501040409,0.016576448729443426,0.01612560677790544,0.019222956122153287,0
0.014414743500584018,0.014435538762269107,0.009949928135485928,0.0007983828131477473,-0.010724515007366391,-0.02061125309158101,-0.02505503024575402,-0.021896518296300252,-0.011722708838198866,0.0015797117966081533,0.012448870420501936,0.016973973723621305,0.015206602101409204,0.010703894848342735,0.007733229449101547,0.008510954744995372,0.012640497621502295,0.018221309119894856,0.022972105036392746,0.024693883914828414,0.021292204347429036,0.01146967516713269,-0.003751008138856727,-0.020823940435847586,-0.035722873173226255,-0.0461673077854814,-0.052568432683194326,-0.05734031666197547,-0.06265506041407307,-0.06875141285935507,-0.07415810899018409,-0.0771474167752502,-0.07765646652691553,-0.07776857391800499,-0.07975876180750767,-0.08402893214157371,-0.089055806733985,-0.09320698956532567,-0.09678604611044528,-0.10206129012591621,-0.11066577456933667,-0.11953359997243532,-0.11724067078569134,-0.0849588504741648,-0.0057767814459291165,0.121827493692556,0.2780753722490646,0.4313138799580947,0.5557241850226404,0.6400505070701489,0.6788691703737767,0.6578087608427629,0.5521854081675867,0.34633446697175585,0.060558849895747384,-0.2395034032847094,-0.4666369076570505,-0.5572109451019109,-0.5062629491929892,-0.3669330208900565,-0.21547900230548445,-0.10892500987975481,-0.06390503325508512,-0.06387132415123806,-0.08106863388651664,-0.09483198800267481,-0.0975401678233396,-0.09110447941927532,-0.08068115416277497,-0.0707016509500973,-0.06373413605079419,-0.060117709265619795,-0.058579085396604925,-0.05809361728168155,-0.05891370979009188,-0.06174031611285059,-0.06657944991184482,-0.07242023755634677,-0.07701848349564232,-0.07715142926262519,-0.07073693918819143,-0.05911847436373197,-0.0467243841276586,-0.03823761695734561,-0.03520513555404313,-0.034750398422073635,-0.03179160164069874,-0.02287673888316863,-0.008506132383716506,0.007610208723386283,0.021370017499524063,0.031078614141477397,0.0383052821304793,0.046142523960868334,0.05686308790735093,0.07115130364111175,0.08857497139839188,0.1081442933114276,0.12855540706110388,0.14798356248116165,0.16381998488757019,0.17317179270690178,0.17435086318665827,0.16839359090315778,0.1591259636506441,0.151493000532067,0.14877150044451964,0.15022918665630872,0.15154709882934086,0.14769988112097285,0.13603977537246403,0.11776891608569605,0.09640254842224578,0.07447554816691465,0.05199943394893257,0.02774079873935693,0.0012616906046485597,-0.02614214541409207,-0.05198734206073374,-0.07416658353859348,-0.09234670072978984,-0.10757284723502593,-0.12011085318057736,-0.12837432146593192,-0.13029787553761157,-0.12520406079598884,-0.11497489564461376,-0.10386418188285174,-0.09610803320942231,-0.09316022795245262,-0.0933579960975008,-0.09405990870168182,-0.09353306756449462,-0.09077472631695746,-0.08488948154703631,-0.0754312767454805,-0.06277887092885814,-0.04836490226193742,-0.03490154635498762,-0.025476305259262248,-0.021597854968672933,-0.02188333281910698,-0.022419177616468527,-0.01864695625162713,-0.008042709996096908,0.007486275411845109,0.021618615724959156,0.027725950650283215,0.024245777642916425,0.0159966301692818,0.010508134648396443,0.01271257640476631,0.021233263909086655,0.028956547120410188,0.02854953019246048,0.018784583853166288,0.005932112024969152,-0.0008395691969422907,0.0039776875259637905,0.018205960005856853,0.03307179947608654,0.03926833469529904,0
-0.013491443416188749,-0.003279903590955391,0.007262678118085296,0.012621619399936251,0.01007120441125484,0.0017169601699539264,-0.00667509795570174,-0.009693458962738963,-0.005987402525116,0.0012154210648010013,0.006640461954866844,0.00694554949573644,0.0032333390140625085,-0.0003270925567608199,2.3441575288945735e-05,0.005222774033914796,0.01310919448891976,0.020034032561741102,0.0230472115526181,0.021125512748012915,0.014874283392799961,0.005225445023218705,-0.007350647228489087,-0.022227249523335407,-0.03758103402649788,-0.05066297786413999,-0.059548725164605285,-0.06431882269139699,-0.06643479042462949,-0.06739318642901716,-0.06778834532948827,-0.06738265385744759,-0.06611140965069498,-0.06472321395895304,-0.064401707523566,-0.06606508872882905,-0.07018713397612689,-0.07730363098460717,-0.08828218959006233,-0.1030736997078346,-0.11785150805858309,-0.1223123872278266,-0.09996645144726486,-0.0345441722363527,0.07815471425535746,0.22235313014341748,0.36803795861360866,0.48753182034314624,0.5693694231728567,0.6161255883720114,0.6262078554047339,0.5787732533413621,0.44238592056893394,0.20583233822683375,-0.09414640457599567,-0.3761334088602373,-0.5527518707545684,-0.579239531094202,-0.47726669194381655,-0.31747695761682204,-0.1747386966098378,-0.08967568860592846,-0.06085582649191823,-0.06387970784044056,-0.07527909849060693,-0.08350423845469895,-0.08624116134684598,-0.08440299908898204,-0.07956256331249126,-0.073655474120231,-0.06861322225942322,-0.06564026005604745,-0.06426810699955847,-0.06229217620355208,-0.05795607510023924,-0.052457883484331995,-0.049194518013965995,-0.0501017888443835,-0.05322187985507289,-0.05409245877904897,-0.04951048233132023,-0.04009372754837888,-0.029390295103564924,-0.021018133463681678,-0.016768915945408858,-0.016335311553137413,-0.017945799213836374,-0.019109103943467758,-0.016954104641105167,-0.008823075588328455,0.006389136249849591,0.026880407789412003,0.048395080480620294,0.06699714736346449,0.08148001837349755,0.09363876581556466,0.10661465488370117,0.12228241063807974,0.14006069570301372,0.1574308385522356,0.17100642647475145,0.17860579192941123,0.18101174245272178,0.18093250197968883,0.18006658137855283,0.17772698729486483,0.17231019074538595,0.16298012184676114,0.14972290754391004,0.13310144682313457,0.11398723294326858,0.09259113028482588,0.06847497945436684,0.042172957535012684,0.015694900940370397,-0.009099499184582416,-0.0316779780018599,-0.05229055866987026,-0.07128279154164724,-0.08868621021559916,-0.10350551766061167,-0.1140462476776724,-0.11961206206365615,-0.12091155113980626,-0.11890929519795866,-0.11490307519815257,-0.11119777852920945,-0.10996842742631999,-0.11139974628456352,-0.11324391580912047,-0.11204013128643052,-0.1048109960679437,-0.090518140683674,-0.07157022690325163,-0.05387536025959103,-0.043388617372083535,-0.041441322340453605,-0.04350286216080694,-0.04263665494900392,-0.034607903515666144,-0.02065695289860487,-0.006212494518421631,0.0035187913314379416,0.007423299949757291,0.007881036865588444,0.00725470777739589,0.006173587103051537,0.004716260341605161,0.004073078251550821,0.006132286285897112,0.01154466509445728,0.01895317293633412,0.025712520105196823,0.02899421959194616,0.027394366740485555,0.022371498669791184,0.01765655877974809,0.016413839814978903,0.01882686068510453,0.022733911876456854,0.025761884250180368,0.026541065755601813,0
-0.0006905503637131497,-0.005474938186988312,-0.009332702260929924,-0.01068998412578936,-0.008951375556802367,-0.0054270597437715735,-0.0027569596979774773,-0.002830185672204984,-0.0052764733122673295,-0.007663973594031113,-0.007287092935640406,-0.0029768884840054946,0.0047112318545330985,0.014193936025145817,0.023529049293436476,0.03140134364573951,0.03745336489416307,0.041200802742265646,0.04137816221832454,0.03676146842308374,0.027060528137742873,0.012846895553331846,-0.004903223168715946,-0.024526523752207745,-0.04306443035221829,-0.057282971530380644,-0.06599264149400498,-0.07074532523097887,-0.07402418663593065,-0.07696051027806612,-0.07861783421764337,-0.07729193532564291,-0.0728598227726008,-0.06826140633032739,-0.06806934514393234,-0.0749355487672893,-0.08749335678694588,-0.10174922018384898,-0.11454608612615219,-0.12506446931863127,-0.1316921080793497,-0.12713830753065747,-0.09754309133416286,-0.028594537289409975,0.08407203456873796,0.2281021007168188,0.3783434826956035,0.5101110072864166,0.610052487505921,0.6722475791054587,0.6831931493216075,0.6151872031681322,0.4420375548332648,0.16863202470412977,-0.15105567010295176,-0.42817339025950596,-0.5820510705258274,-0.5837444040320469,-0.46869423030361207,-0.3108625694521154,-0.17891436196866028,-0.104938753739271,-0.08244819308936838,-0.08677296031182644,-0.09712647372061141,-0.10467606812677156,-0.10830244024279241,-0.10868022253504844,-0.10582161697941285,-0.09917933738715197,-0.08859310755006694,-0.07537286185164999,-0.06251495573119759,-0.0531096731796805,-0.0483375032512169,-0.047281543359187404,-0.04828568103690943,-0.049721807949048694,-0.04996194792620141,-0.047736940603649525,-0.04257347239105029,-0.034816591581072046,-0.02542816126180769,-0.01565896793520975,-0.006828444323673822,0.0001690250800111745,0.005811682917867329,0.01176634633507263,0.019559693362524153,0.029991153828793873,0.042995282758194975,0.05733588368117988,0.07117413473111596,0.08345023579880527,0.09453831506307836,0.105703333183103,0.11842786908587435,0.13382595731559707,0.1513648066569022,0.16805416059712772,0.17995540431468576,0.18467546456823322,0.18241942042481643,0.17532828689209426,0.1660299861481936,0.15654517019174125,0.14796655775879752,0.14042409025882294,0.13305025582271457,0.12425113981026323,0.11236608019003175,0.09602102621619457,0.07446348700640414,0.04821831348456487,0.018976819234571934,-0.0110552447063441,-0.039403551012084426,-0.0635610194608241,-0.08156026419240234,-0.0928976283218843,-0.09954019754240487,-0.10520618331026452,-0.11254661287530668,-0.12146366438813261,-0.12970423280384652,-0.13423174394376086,-0.133079945407737,-0.12660697065647142,-0.11697977733089208,-0.10644945925863203,-0.09589817040086115,-0.08519725862077776,-0.07454720523727845,-0.06498934117033558,-0.057711446141894544,-0.05276960955943083,-0.04878778399314717,-0.04390500149651017,-0.03714678383583021,-0.029723338567247896,-0.024331500165211337,-0.022246836639544507,-0.021653993820676766,-0.019047528976939843,-0.012040442681352114,-0.0010822942330237437,0.01097274885268418,0.020685216494707153,0.025839660143208466,0.02633454095789027,0.02430459866932587,0.02300215276223601,0.024198440882019397,0.0267957425136022,0.02838088671987645,0.027730267281806838,0.025851539756525953,0.024895078697467217,0.02605640838211091,0.02837287300173922,0.02934651141566849,0.026762921001299143,0
0.0010763440827227418,0.001425783403968318,0.00355628249975678,0.0066418228537921805,0.00932397866398795,0.010923236365302407,0.011448048716401975,0.011019722390762406,0.00987681172177365,0.00822329604454063,0.0056865015059150495,0.0017003199025158683,-0.0029994747221218977,-0.005578709885836481,-0.0026658724543117108,0.006346826305402889,0.01753605124240658,0.0247715660618754,0.02386569040252073,0.014804645942474328,0.001392629791327584,-0.011261765830923809,-0.020299485411713364,-0.02648193956627479,-0.03197167993581369,-0.0378646939159907,-0.04427827735883403,-0.05101856248059575,-0.05732350124201966,-0.06233169845914573,-0.0659762716573921,-0.06864011905320212,-0.07058475214207821,-0.07217948748166117,-0.07367876448667551,-0.07467016568210023,-0.07492602324536277,-0.07581913358874429,-0.08048846984279086,-0.09225407734618336,-0.11083709097183031,-0.1281698912861315,-0.12802152419554438,-0.09159556760356392,-0.007340216465618638,0.11986618476458406,0.2671901920470998,0.4047328443345887,0.5121688636734494,0.5852555559420656,0.6247611738335276,0.6188464894154473,0.5394330559048033,0.3623058209583654,0.09754189975952408,-0.19638918086597895,-0.4325357007922843,-0.5408514646660619,-0.5073954266056393,-0.3785644854879126,-0.22934156199952171,-0.12045034975017124,-0.0725876992733239,-0.07017047195777446,-0.08483859010781582,-0.09633776798506044,-0.09806968228246324,-0.0920328863808584,-0.08249196661265724,-0.07285184466400607,-0.0652289778376154,-0.06054168544137339,-0.05852732321512923,-0.05817395723224276,-0.058500015351575285,-0.05892200534691193,-0.05886908286431795,-0.057530744299575595,-0.05444318972049002,-0.05001441383432351,-0.04508614679808668,-0.04033808141673672,-0.036302309487403005,-0.033284678262304204,-0.030845896068126738,-0.027905650610528354,-0.023519045734348095,-0.017127467353792995,-0.008501463875988484,0.002186479387057105,0.014428982849791034,0.027341695377610165,0.0399551472998815,0.052014862586131305,0.06397944865698474,0.07617350525235277,0.08837266843561592,0.10030265812957445,0.11236554018142113,0.12520419900235957,0.13846330292420478,0.15065773476098568,0.15987315709178015,0.1644170024330014,0.1638383013877176,0.1594085965424481,0.1532238553561773,0.1468671297770897,0.14019610456512557,0.1310246859507161,0.11680375189460504,0.09692901418866015,0.07315513371767515,0.04811497924025154,0.02376126942591676,0.0006645669256385746,-0.02177275561957182,-0.04387883177847363,-0.06425287039139452,-0.08048994816059274,-0.09107577657958528,-0.0962355651616907,-0.09781678995074006,-0.09852816805394538,-0.10040530032165423,-0.10336294794414841,-0.10521795340998644,-0.10335247540013415,-0.09673652725494059,-0.08682973272758646,-0.07655565441447296,-0.06817399135202222,-0.06225573266109459,-0.05825611780651908,-0.0550812079191915,-0.051422428331015804,-0.0463113959278042,-0.03941497367933794,-0.03134616329590891,-0.02368426452025496,-0.01764397858499967,-0.0128479931290692,-0.00815492752752604,-0.00318515192277208,0.00188120584210188,0.007360001772318546,0.013505504490106767,0.019492822318392486,0.02425007932020631,0.02751024255692959,0.029099562896694277,0.02826841938692807,0.02466483954968156,0.019035466480034534,0.01241886374294037,0.00559081968166137,-0.0002649270503624155,-0.0032166289582631546,-0.0019240121261331487,0.002741127991145402,0.00800015447201421,0.010979697423176425,0
-0.011596804061798962,-0.011925592860891145,-0.009032583547718194,-0.004786604398807926,-0.0015201141199142312,-0.000521505335172415,-0.0017752643789574972,-0.004629150893306357,-0.008132810598917057,-0.011252542644943386,-0.013296417718287486,-0.013743669805441961,-0.011819076641602068,-0.0066782067117580335,0.0017217587249957762,0.011664696312175604,0.020170696283815653,0.024674071368319443,0.02379829525302908,0.017561049944356998,0.007543207587682229,-0.004245750221109288,-0.01658193319478311,-0.0286892465453884,-0.03976906049755202,-0.049206308835809794,-0.056994219130902975,-0.06387148396155891,-0.07048377963281015,-0.07630123716350339,-0.07998228217811323,-0.0811197261561408,-0.08100636615083755,-0.08116042697723458,-0.08168723226062634,-0.0818757796882211,-0.08212319453968119,-0.08456603201262929,-0.0919979390221006,-0.10574874785715452,-0.12275942759213627,-0.1329079117184887,-0.11910637897166217,-0.06371622637311906,0.039963635317638205,0.18038897090883638,0.3320214441545903,0.4685765583924161,0.5752606510010023,0.648250264673463,0.6799696752321617,0.6468025006528632,0.5179395433658565,0.2835801206475499,-0.020288165430755952,-0.3143357369662979,-0.510710213620766,-0.5602747755975048,-0.4789491502234856,-0.33333486230673826,-0.19748137836854712,-0.11374301729577072,-0.0827025550529203,-0.0806704982113487,-0.08419887109462246,-0.08301336865759018,-0.07832933210466037,-0.07514254549734029,-0.0764377153283842,-0.08117908622987476,-0.08541018239245657,-0.0853791154781786,-0.08006801992145733,-0.0713635526674474,-0.06234049398253422,-0.05501126116380884,-0.04956665189325432,-0.045650884069064264,-0.04331741002731875,-0.04208756190414507,-0.04010705209304775,-0.03566254360863125,-0.029288152708763705,-0.023246913679628528,-0.01906128739128954,-0.016200665775947604,-0.012875634009148068,-0.007304326753255945,0.00162919974985388,0.013674580063088122,0.027000303810314423,0.039709888826241276,0.05189881490981329,0.0655034866645318,0.08147505993260926,0.09792751106229931,0.11189349286567318,0.12225136763694948,0.13030620937377832,0.13771717102561862,0.1445613682973521,0.1495607983908736,0.15156414538942223,0.1506629486030101,0.14804437196832076,0.14510472889090295,0.1428927238167917,0.1411708839114535,0.13741084028017966,0.1282939852995582,0.11260645979442957,0.09154933673362714,0.06708965404244759,0.04129528209789077,0.016119831632220524,-0.007070249902582041,-0.027405039213122397,-0.04476628493886192,-0.060574087214001954,-0.07688219041606145,-0.09401907703963397,-0.10969669839778123,-0.12062852956304015,-0.12508735409784622,-0.12388558022421496,-0.1190346651322594,-0.11238392081644845,-0.10556371378136044,-0.0997658712835345,-0.09497125011471047,-0.09013514315669637,-0.08419115732318969,-0.07644856935148253,-0.06672970664340244,-0.055771153807873376,-0.04523114936846826,-0.0370998038662679,-0.0324679277821896,-0.03030378636736983,-0.027882012644630673,-0.022566005630349648,-0.013357729661213699,-0.0017822148075097872,0.008783614958927601,0.015600375616834312,0.018028425691306846,0.016782522990486305,0.013459446010121045,0.010206094580885344,0.008256804965208964,0.007557977117866465,0.007915839034448232,0.009414569098768444,0.011970784771461768,0.014935808342070651,0.017365439247213052,0.01872424295640708,0.01875191168120629,0.017051347355444453,0.013850458872426134,0.010706734675481807,0.00944696993056417,0
0.007918272491922342,0.005796397336366273,0.0031576825880290653,0.0010832218374448475,-0.0005226811059816496,-0.0022634199477448904,-0.0043893680943611745,-0.006234825871286389,-0.0061788732545508904,-0.002788377459175952,0.003499265849967773,0.010256458631479856,0.014864134961015444,0.016110607841065938,0.014546992870838521,0.012198790219000461,0.011541192453789753,0.013550832555278954,0.01650945621661971,0.01735416991112433,0.013811575666680046,0.00485732216513364,-0.00924295522805383,-0.026131398185192403,-0.04168282088606505,-0.052477178625866136,-0.05780196591871613,-0.05895005678963966,-0.05781822436967268,-0.056809774545502845,-0.05847162977512259,-0.0637802308637786,-0.0713843513352085,-0.07907488384095865,-0.08493454519933517,-0.08744315158666953,-0.08659763822719772,-0.08521353243863102,-0.08781836716456061,-0.09669291521994783,-0.10760219097854817,-0.10882306050975994,-0.08447949756162183,-0.021610245422125703,0.08099483724114374,0.20852093606814615,0.33633858785824067,0.4437928935492521,0.5239240783530514,0.5785259345350243,0.6013860726405161,0.5674877110839185,0.4438937392674566,0.21901016483823552,-0.07119435047111095,-0.3455577446979694,-0.5159787738813003,-0.5376507970295049,-0.4339054111063166,-0.277520072273949,-0.14471478968669566,-0.07582229030518955,-0.06569976810241354,-0.08317916713975446,-0.09918302889837832,-0.10148909756750027,-0.09222637161206211,-0.0788576707787723,-0.06758027281855808,-0.06086236055393798,-0.0576647986456279,-0.055526006311588404,-0.05333545152231464,-0.052122833350979475,-0.0532608411585676,-0.05646274230388253,-0.05960397336576533,-0.06050275845023799,-0.05853056073867206,-0.05421493554845824,-0.048313310444763696,-0.04152198081413322,-0.03433915505852475,-0.027561996232849016,-0.022461388379083198,-0.019542170493419934,-0.017702473013835096,-0.014369000233186078,-0.006190420114345547,0.008793949940521172,0.029051546335599004,0.05030498198162299,0.06831863900217552,0.08105768027274343,0.0892431539470042,0.09555596311752235,0.10273658551986527,0.11188731852205834,0.1224637119986632,0.13315210669513142,0.14252100989262104,0.14989567109759097,0.15580224569864987,0.16053437837214152,0.16263585718121967,0.16009839276954702,0.15274694243262016,0.14228750015991154,0.1302327380209503,0.11681237890412936,0.10160446110242043,0.08421355214261633,0.06437255243381672,0.041985081530626266,0.017475397703738467,-0.00783442647857702,-0.031998265633498016,-0.05326459243989262,-0.07072660865922645,-0.08447549403684328,-0.09510915063558947,-0.10305910802361513,-0.10858795853341194,-0.11229862751582541,-0.11517274020364937,-0.11764118066816823,-0.11870407073524386,-0.1164751872824676,-0.10971083162802772,-0.09869073559042357,-0.08503242167318158,-0.07125977445381973,-0.059993902262650126,-0.052566126689372515,-0.04838947760413457,-0.04565685994295891,-0.04253700367055328,-0.03797252643275709,-0.03168102260183145,-0.0241200189787125,-0.01641748338363526,-0.009569294320317969,-0.00398802121588685,0.00021526168202783136,0.0032502055983197,0.005624405023498053,0.007760033618140207,0.00988202709671485,0.012123576094202266,0.014360510108134,0.01575738987937567,0.014780941966527137,0.010585878130758942,0.004718639139317668,0.0005485984535825075,0.0005557089404050657,0.004619994093370863,0.010731860570331656,0.01648339572869844,0.019928545457678873,0.02032424199408556,0.018616623508458465,0
