1.2488010172921447,1.594501647115266,1.813539820439631,1.7490188486200822,1.2537336221254178,0.29480356065867885,-0.9884615122686471,-2.3158887367592573,-3.3743686466120124,-3.94867867908274,-4.004182385167729,-3.674844865417737,-3.169967623480148,-2.6680562026916403,-2.259841473732143,-1.9483134384041425,-1.6873650748089495,-1.434469705285107,-1.178414838745705,-0.9247217497043714,-0.6678602807935465,-0.38839634215688396,-0.079644110670015,0.2245621255576319,0.4501016281738009,0.5204071156117646,0.4161905806130309,0.21662924299018077,0.07692444707449553,0.13229544700771453,0.38920902127832013,0.6993697548755571,0.8501715416317381,0.7087010309081423,0.31596253442344,-0.13605984426352485,-0.4272229256051706,-0.43959613120684443,-0.20377733822507876,0.15412114914568148,0.5065826391488474,0.791099896823264,1.015409525306336,1.2123684236907397,1.3958497503626368,1.5665912528864694,1.7523338992664101,2.015894407209612,2.3948903288521612,2.8159869081687603,3.0723578588819156,2.9158431809156076,2.2200077839876196,1.0974292095738776,-0.12670087196530633,-1.0795229542677218,-1.534373470818616,-1.504492513020336,-1.1874961340833585,-0.8216016085011673,-0.5628097602688475,-0.4532742972859677,-0.4691541050448106,-0.5778965242244423,-0.7546015186000248,-0.970203566221887,-1.1852113590162046,-1.357771313369136,-1.4550435026616615,-1.4600897209364487,-1.3755364887668757,-1.2238085787008195,-1.0394082351468867,-0.8549478101814708,-0.6901461726891419,-0.5496762837477462,-0.42715750517379475,-0.3102451901666,-0.18833388236405552,-0.06417174709676726,0.03998119128242994,0.09137736938170393,0.06782373949224821,-0.02348942870066134,-0.14436234333143846,-0.2450825471838541,-0.2925010450695893,-0.2860852393832084,-0.2509806550720574,-0.21606536389147055,-0.19455524187663686,-0.17959754285688728,-0.1552901765246206,-0.11179564688931848,-0.05141381265307665,0.01593043568548974,0.07952516609513793,0.1317699399967359,0.16964900460189059,0.1944129435298737,0.20958140610900783,0.21831016264221625,0.22169035780628116,0.21961550621000855,0.21327985800184962,0.20592627408705372,0.20087171891421485,0.19913720142685565,0.19933136363070447,0.19956387289395916,0.19874783657022135,0.19670967860215852,0.19408297287761686,0.19164768153747405,0.1890718129079863,0.18448197104185188,0.17565223811772768,0.16174268338352243,0.1439551075216882,0.12496044679414003,0.10852975997832348,0.09909677120703639,0.09969685634748895,0.11005969775649588,0.12725521781159704,0.14718724101960828,0.16563252866671624,0.18001065126856,0.1908665990130843,0.20113096961018262,0.21366131199541763,0.22860812506491476,0.2424661201380573,0.25019564030137065,0.24873870588301975,0.23864455750254804,0.22296830615113694,0.20533811916543065,0.18889922219523408,0.17584661958507647,0.16738657579857363,0.1645515032089252,0.1683731621279415,0.1784186972081962,0.191607347596586,0.20277504346995254,0.20624249058734523,0.19741398837062038,0.17426893569489543,0.13844856015745494,0.09485250383966691,0.04987836041533596,0.009667202686487242,-0.021791971087885664,-0.04424727430650566,-0.06027243809177153,-0.07244946771478925,-0.08184156560856753,-0.08893526144316848,-0.09484625852686707,-0.10074457375990468,-0.10652635484636604,0
-0.28210377445785023,-0.29894436648826955,-0.3130949933280364,-0.3236782606535146,-0.33103825657157765,-0.3361124421935326,-0.3402291641052029,-0.34474517378041447,-0.34995948532755994,-0.3550662103848069,-0.35888927495406264,-0.36001812545708306,-0.35730271362860083,-0.3505915992478266,-0.3403360328948773,-0.3268760361372158,-0.3105903387403325,-0.2922274717635349,-0.27244466789945987,-0.25089417279748344,-0.2258634994763917,-0.19497481914528444,-0.15645709106661698,-0.10992926039079728,-0.056205063562226064,0.003519879454733685,0.06848890098500665,0.13871336621544825,0.21463863965089464,0.2969761084826457,0.3870954537192263,0.4867224732925559,0.5968937946519355,0.7173699209238215,0.8467414359486144,0.9832133467533636,1.1256324069720989,1.2735858505760322,1.4268612801743863,1.586025122474048,1.753623251611462,1.932836238829371,2.12144922272869,2.303750983726952,2.453905371177824,2.573820606913791,2.748441399798024,3.124473774359709,3.7598030575779036,4.455346463742017,4.749552042718688,4.14714121496722,2.4639187694344664,0.03632772066336201,-2.3972151670862614,-4.094437980211759,-4.710157930945122,-4.420993271221455,-3.7204719468408167,-3.075118741400747,-2.69167458360778,-2.515575892334246,-2.3972100139789667,-2.247497767584876,-2.062977847678471,-1.8700745843996105,-1.685729176595584,-1.5132913871458638,-1.3504976013315515,-1.1952978404541497,-1.0472089597139527,-0.9065807550668185,-0.7738062049261829,-0.6490504143203558,-0.5323021069046884,-0.4234792423510614,-0.3224812847835416,-0.22919531085411277,-0.14348864802775957,-0.06520554677850326,0.005830369419564885,0.0698114705315463,0.1269418965489706,0.17743433087338084,0.2215074298810744,0.25938355043621797,0.29128665629198014,0.31744043184637494,0.3380666402918151,0.3533836895899045,0.3636052933951761,0.3689391694423053,0.36958606745388234,0.36573996940336206,0.35759022157808473,0.3453240956612091,0.32912351740878387,0.30914757391668085,0.2855056258449859,0.25826355651969035,0.22756035502833696,0.19384747793203663,0.15798703222198582,0.12056925304998904,0.08052945507775316,0.034933497169576944,-0.018816497145709418,-0.0798422926992242,-0.1418153471072684,-0.19361534453175716,-0.2235578238867287,-0.22539964078762184,-0.2016906391668845,-0.16219155419645306,-0.11884814219393368,-0.0804294819955562,-0.050262953519287404,-0.02764812741946196,-0.010216277823565531,0.004425208200278752,0.017846447609391095,0.03091278357904928,0.04428563410381742,0.058448270694019436,0.0732982867395878,0.08763549380044215,0.0994703558977373,0.10743446027859016,0.11156282920277426,0.11294493867833594,0.11325961122820372,0.11406934821166208,0.11606131308806493,0.11919543074857153,0.12307595856833614,0.12679514081999993,0.1292240138127546,0.12951408209725332,0.12717945299219732,0.12268740836727837,0.11775589979174272,0.11430784275637643,0.11356789878839395,0.11574773366046441,0.11970515257419881,0.12318511186469229,0.1237929460029891,0.11981020545099948,0.11037766648416152,0.09570736645411218,0.0775283285306105,0.05839927187038925,0.040369376831856846,0.024887650493090583,0.012685915491372882,0.00288865267109328,-0.006250742430731572,-0.015376837427269495,-0.023763095441171177,-0.030478649174881255,-0.03479911957279869,-0.03593372521548749,0
-0.16725662081234235,-0.16759004196965432,-0.167412280370686,-0.16641904522737336,-0.16467199958879938,-0.1616224940009821,-0.156139857300595,-0.1476938898286977,-0.13692933263080634,-0.1251036265190162,-0.11324892958102274,-0.10171078916602037,-0.0901374677908368,-0.07759543202041362,-0.06300119997521092,-0.04615822110117865,-0.028200306203186476,-0.010458730850800487,0.006553891020937603,0.02282200350281815,0.038699496641520614,0.05543821887842407,0.0749260781160381,0.09864835054078872,0.12725386565888164,0.16104268133149907,0.2004740838328818,0.2458255074217639,0.2963433772085528,0.35010024228949166,0.4046054245974904,0.4577544322770001,0.5092378668698845,0.561829514807215,0.6211027924221736,0.6922982213732451,0.7767486103555212,0.8723275094703434,0.9765199016149277,1.087775478741963,1.2054497316384656,1.3295880840267988,1.4588073628977185,1.5865093271751003,1.7025218989367805,1.808690936109475,1.9430825169019967,2.178960953303259,2.558150664240776,2.985298759897797,3.190057321159185,2.8365953622520075,1.738780769816336,0.035243847134414696,-1.8213218500506108,-3.281699238311217,-3.98793766462002,-3.938316696558189,-3.428886644844655,-2.8354611651086077,-2.4016313332761587,-2.1652719038616697,-2.0337702255264376,-1.9081639333591447,-1.7481139841324815,-1.5612634035721047,-1.3702782643139635,-1.193891516215746,-1.0415213360084774,-0.9128817617774659,-0.8003020612415692,-0.6943453587407055,-0.5894937511911666,-0.4853476014102958,-0.3839852481350099,-0.28707411383966835,-0.19493800306927717,-0.10816787092750102,-0.03010048696621892,0.033009156530560135,0.07569549772496298,0.09827466474871233,0.10876763032917297,0.12049769000083943,0.14642026063948854,0.19225301545456286,0.2519681633109892,0.30942221149131255,0.3471679583307386,0.3567855427871396,0.34292391418522394,0.31971480135737507,0.30249206325263167,0.29900801417299105,0.3065031844928773,0.3166980825197908,0.3228391636994159,0.3231623248262889,0.31978304918882566,0.315045998469931,0.30940303168148564,0.30219093306079164,0.29288917444239687,0.28176007761151933,0.26975030765555374,0.2575615775009247,0.2456551719542373,0.23523363820490817,0.22742707055341718,0.22130741869068504,0.2143730303602214,0.20509491004242278,0.19375389673865706,0.18122269032724092,0.16827052768526962,0.15582632178007047,0.1451696978104999,0.13733770480312196,0.13185475184406353,0.1265957087414125,0.11924396217685293,0.1086382591625535,0.09526570440471555,0.0807339994655139,0.06650767760956064,0.053211764317222215,0.04086919195749682,0.02922258364467702,0.017693582539534597,0.005425687680432317,-0.008216303795603064,-0.023412237907058424,-0.040189520179353344,-0.05812892619086963,-0.07580617493835079,-0.09136416502091863,-0.10341294596391451,-0.11128961342456943,-0.11521322057025499,-0.11627510842733471,-0.11593458159786157,-0.11533635947223837,-0.11486491818441616,-0.11408960155972482,-0.11205229690286836,-0.10779589208022021,-0.10060782375246242,-0.0897787019986453,-0.07485774217125267,-0.05680448812848186,-0.03843906261313552,-0.023083303286597537,-0.012848175040768852,-0.008094417999616814,-0.007691335628249181,-0.009664285541279911,-0.01233992928524683,-0.014872913577934093,-0.01675425903338988,-0.01774392748057812,-0.018085421847737117,-0.018074875663373374,0
-0.2939778436872441,-0.30597250718049707,-0.3147929728356826,-0.320103116856595,-0.32188072452460137,-0.32057576714411323,-0.317644601236196,-0.3148705717942285,-0.31263673674679193,-0.3095143664205276,-0.3032572194697138,-0.2916132752538242,-0.272951790775748,-0.24691624855319871,-0.21422031287224227,-0.17560157853964287,-0.1311782696298834,-0.08094704225709598,-0.025337186825251462,0.03511702578192127,0.09955643049426885,0.16592342442963437,0.23166551315472456,0.2953332610490439,0.35610929810279035,0.41192957310715145,0.45948005856922897,0.49617606469076325,0.5214557314286803,0.5368590458587886,0.5459547746257395,0.5533265901855077,0.5625674007201404,0.5752259075091632,0.5911262945075824,0.6092173002089197,0.6283095156590868,0.6475969011630118,0.6672979802150945,0.6889151745822957,0.7148190165839227,0.7474873733887942,0.787601064152411,0.8312852457336243,0.8702546384588895,0.900341190663512,0.9389900383843598,1.0311945269484946,1.213399953234561,1.4497597468905643,1.6047423759044894,1.4967007615383685,1.0115850708296357,0.20051001578797945,-0.7181582032188645,-1.4668141807284254,-1.8575958810297049,-1.8807389215062595,-1.677194708461749,-1.428861732640994,-1.2525981699758162,-1.1644020934423436,-1.1187278279503474,-1.0701544523592645,-1.0013223837978544,-0.91541419208929,-0.8231448381518349,-0.7364783314693628,-0.6647527318411707,-0.6106507672785428,-0.5685510256799912,-0.5274678724791021,-0.47707447456235474,-0.4135298731975767,-0.3414124852867708,-0.2698175297872418,-0.20607094825882766,-0.15283514442960586,-0.10928327047409292,-0.07294069794626479,-0.04080911208588964,-0.010438528723929613,0.019016331624189642,0.04665209075555307,0.07109131095346208,0.09190761064312652,0.10953443147042075,0.12421153432440807,0.13573690957200213,0.1441523678121204,0.15012312230454183,0.15474838920037373,0.1591752002434791,0.16387456300921815,0.16826181551771724,0.1715664722183414,0.1736014424413897,0.1739871754231137,0.1717700647122251,0.16671788937995752,0.1600064193616805,0.15355711369394345,0.14904158930620867,0.14667943207078646,0.14512788129969895,0.14287824501396396,0.13884219545820592,0.13205920347150776,0.12230788957866578,0.11057715976841177,0.09829083152284122,0.08667360267387417,0.07673831784573959,0.06894955677457547,0.06286500764435617,0.05748738275722437,0.0516956553701034,0.04445013218010757,0.03545107119952753,0.02574392657530204,0.017084271044088835,0.010617378710366103,0.006567757788704275,0.004940693534235356,0.005550704705811803,0.007358238954262102,0.00873586999093393,0.008581192281435607,0.006653072030132581,0.0030708748548439685,-0.0015025129344928539,-0.005395797328552611,-0.006833892994016025,-0.005396861647910931,-0.0022340794314069795,0.0010305693909141104,0.003320780477382851,0.004046101415094979,0.0028263238075130776,-0.0001864254886839601,-0.004143180480310971,-0.00792926445344542,-0.010565127962512454,-0.01143606988836163,-0.01069678479616816,-0.00937458186878552,-0.008774806134119252,-0.0096742767555846,-0.012080193135814273,-0.015536314051543043,-0.01907456098557866,-0.02110713722378648,-0.0199738225156864,-0.014598238512986174,-0.0047065687696101685,0.009380133717377784,0.02667593370025105,0.045284763105116546,0.06444221323175792,0.08863303620603072,0.12715388123265955,0.18453787812473324,0
-0.07247240959409289,-0.07183487577816977,-0.07350531043540103,-0.07751192608024822,-0.0827391281657679,-0.08774045927648881,-0.09166261530284053,-0.09402958759872912,-0.0945173890227062,-0.09321521336276421,-0.09104221182131911,-0.08962086650543717,-0.09016044078547937,-0.09240676520727967,-0.09481526050238837,-0.0955736642059396,-0.09322871610838185,-0.08709868749445375,-0.07780724298628969,-0.06682121019792536,-0.05540301242909686,-0.04418948522132968,-0.03319253628076309,-0.02207100530632436,-0.01023240532452892,0.0033986956490956004,0.019777159957985097,0.03883148490472375,0.059858765404592784,0.08246188811734466,0.10667062943949947,0.1323438053533476,0.15856785686153926,0.18405227133049995,0.20863123552335655,0.2337723124879982,0.2612942505671087,0.292410858181931,0.3277066686444536,0.3670205371655843,0.40936394781120883,0.45316309679290057,0.49604170510900014,0.5338235971719817,0.5617118646278285,0.5826595742316109,0.6185472209435726,0.7033069038411353,0.8471012990955472,0.9990950095617418,1.0508637706046224,0.8929631119672662,0.4941459864092092,-0.05425873341125458,-0.5738603521654657,-0.9009425583309648,-0.9816756190369458,-0.8909205023105191,-0.7664125565766268,-0.7127361690939097,-0.7454623562149507,-0.8084951879817184,-0.8370428426336293,-0.805867068261588,-0.7311612756331658,-0.6441809542362809,-0.5668502647226749,-0.5035895133606371,-0.4481930225783604,-0.39456185113538966,-0.34120827039184887,-0.2895620814357336,-0.24112362922597838,-0.19640538472503397,-0.15533908038470234,-0.11722082780237736,-0.08028370242905815,-0.042479333073192585,-0.0028466933783657528,0.037886630375371974,0.07771705275391172,0.11466166932466909,0.14788059763362785,0.1777342421914383,0.20525057319178897,0.2316752958081196,0.2585791702689839,0.28797224836289437,0.3207845132323566,0.35424281726818757,0.3817730553389586,0.39773801471449777,0.4054871160802028,0.42225555541691046,0.4695446872802898,0.5484509253372539,0.6215074218331398,0.6227486611088314,0.49504929619165455,0.23227530634671506,-0.10479906891768724,-0.4154591582345498,-0.6129890431019365,-0.6681468485310104,-0.6143628426513221,-0.5166034183661963,-0.42921568563596785,-0.3714406680049871,-0.3334431044617422,-0.29920688245043287,-0.2615425276442753,-0.2214883160915775,-0.18196906709947352,-0.14444344334751866,-0.10901585129216067,-0.0748681401685347,-0.040300477574478806,-0.003681020628720697,0.035550906358926763,0.07686539137168208,0.11873216178356076,0.1591515181263982,0.19710453041322876,0.23305367587260795,0.26812588218364164,0.30372161762521455,0.34114080116598555,0.38031736375629477,0.4189780552155207,0.45379532037857095,0.4854799925501711,0.5259116271971798,0.5945837715037068,0.6969319489132476,0.8012097421177653,0.8390142573015134,0.7384806995697486,0.4738510486442457,0.09641333061969126,-0.2805226447050141,-0.537543486141614,-0.6106492631240523,-0.5197183246217072,-0.3498969116408317,-0.2017856806068088,-0.1414092572934304,-0.17681768845777085,-0.267335449433107,-0.3517405276475478,-0.381779002696392,-0.34963971415938566,-0.2917498171021835,-0.26180923669618,-0.29127553355896396,-0.3666222269630155,-0.43990630008775805,-0.4631919811848271,-0.4194356568135967,-0.32859348115711806,-0.22958694698350965,-0.15471682867360115,-0.11403377156277528,0
-0.08901046440598276,-0.08753786882749531,-0.08171075464451075,-0.07298918727331698,-0.06381053147097092,-0.05596198408628873,-0.04944277876475761,-0.043131070562878335,-0.03588471684544019,-0.02706704170022675,-0.016705938566564556,-0.005060018228895008,0.00803922382910863,0.022794710112083442,0.03825343985702003,0.052472206795036454,0.0645083908384434,0.07567628451561595,0.08873108332510117,0.10583557007616694,0.12564210710870014,0.14133271654323118,0.14320139963182624,0.125099017709095,0.08931359860052876,0.04594520179124264,0.007857414604070502,-0.014959654683535831,-0.019198581272209542,-0.00867361860855281,0.009287851475007887,0.028677060897828652,0.04737738843109982,0.06642889233651825,0.0873245529118952,0.11025057507059897,0.13430884310198749,0.15859887725660593,0.18335412964748996,0.210257383960754,0.24162656658515744,0.2790660063827962,0.32169932946616897,0.36525741014625024,0.4044208274674973,0.43915122130769724,0.4813162308167367,0.5511509848294193,0.6580868658468415,0.7783379157600651,0.8497213732629633,0.7955402403325973,0.5691012986864226,0.19105875008299483,-0.24875080960254592,-0.6315473140943402,-0.8675895099607929,-0.9341329168123335,-0.8725418635078172,-0.7527645278270342,-0.632652816883495,-0.5381203410396412,-0.4684851770076972,-0.4118794740459353,-0.35750543305634247,-0.3011906235895108,-0.244010678299207,-0.18670443165156536,-0.12630800420207275,-0.059925798414601994,0.007150513308946005,0.057978263301668914,0.07077427672185627,0.0329490064979398,-0.04752763305185248,-0.14334629832337334,-0.22179359625542816,-0.26108895142218824,-0.2574077475161055,-0.2191764299150296,-0.1574992365486002,-0.08291563079371397,-0.008396580431522166,0.048273076535274434,0.06935612311064654,0.04842906920998542,-0.0023370864517770207,-0.05724152166092844,-0.09154622009172309,-0.09480268725408891,-0.0736759563629722,-0.04356945753302172,-0.017163775187073543,0.00134186486395646,0.014130990295498955,0.024273485434065593,0.03267784801964343,0.038996249503772014,0.04345254193541908,0.0471153996138538,0.05104850273666729,0.05567519183938691,0.06093569418729724,0.06642670705563487,0.07103345199139235,0.07325200090006603,0.07225073562021306,0.06848546847581899,0.0636118680638314,0.0596206685046866,0.05753759558498585,0.05699946673675409,0.05708247393386439,0.05706980414253203,0.056345235083974474,0.054293237253467026,0.05090355722646522,0.04692028917539839,0.04290967776062551,0.03918236913112859,0.036777587259337254,0.03684284320935662,0.03895293968615245,0.04150808602705013,0.04346002782567116,0.04447408777001968,0.0440995715171457,0.04201106780333236,0.03878164001095357,0.03581764274872006,0.0346024009444679,0.03581639820619478,0.03891075261413462,0.042508107133286926,0.045056486043617214,0.045235377872375436,0.042194914335520785,0.03602672027311357,0.028315222927750485,0.021444756944010532,0.01683698908722346,0.014247780445010344,0.012584836403545118,0.010661736345642372,0.0072980623258360675,0.0016104674428941302,-0.006410604732513363,-0.015778762573063695,-0.024984637884526536,-0.03264902958695706,-0.03810047821573447,-0.04148711396605895,-0.04340697102880152,-0.04476225639922145,-0.04651952447946893,-0.049168135482455196,-0.05294477793123252,-0.05825622198184019,-0.06489116176704443,-0.07127744675137614,-0.07551530194677303,-0.07705518126963376,0
-0.019762615981694664,-0.014787808877657248,-0.007163664224522685,0.002050000002825089,0.011891739995218968,0.021507579441886575,0.029564248642744782,0.03473272339809636,0.03692628734655542,0.037577657863082904,0.03883618953107522,0.0428289080928253,0.05083607309455676,0.062365097036256006,0.07513904456653198,0.08585125709506587,0.09211911024298244,0.09693851931805125,0.11090502193567317,0.14401667085728742,0.19098895749397127,0.22565109580486542,0.21262020332932072,0.1298523072160991,-0.01265884538710714,-0.17276283823051172,-0.2975916270662022,-0.3524757228326555,-0.3372324108863165,-0.27990425579815825,-0.21487634426465987,-0.16243505553152235,-0.12324969908007581,-0.0882451143649749,-0.05132094842320312,-0.012669633620860866,0.025422229465665802,0.06209642358972863,0.09848230921903706,0.1366108038161535,0.17808507689991845,0.2236890468296428,0.27318748815655114,0.32417209880803227,0.3726649880986265,0.4193036459866408,0.47591153090846433,0.558414977939944,0.6664781567305222,0.772093236251949,0.8296197077610752,0.7973185376484339,0.6568627038798649,0.42138443663616665,0.12837566388225363,-0.17535823382718757,-0.4452729041326716,-0.6446638085258491,-0.7500036775512235,-0.7576058551149984,-0.6864492210963956,-0.573440761420559,-0.45990943807540785,-0.37281319376965744,-0.31474097616305685,-0.2728839746633036,-0.2355885320818047,-0.19910700795767705,-0.16429553347296696,-0.1325929372660833,-0.10462581744829913,-0.08020035118056107,-0.058708813806301115,-0.03935614593147301,-0.020991165174264362,-0.0026096898427088316,0.015106231486374105,0.02934561358583744,0.03696479191245333,0.03654759494315565,0.029023179967409468,0.017511610750770793,0.0065798090199958095,0.00013328730707580505,-0.0005927733866460984,0.003011028479407287,0.007950046630499936,0.010243925621330235,0.006432500895605979,-0.0036503939348897924,-0.015844316164764706,-0.024289270051350356,-0.02547815619261347,-0.02066000996751014,-0.015581245434005127,-0.017778740444150384,-0.03253581631955091,-0.05970545635732387,-0.09330669565071052,-0.12402127615540992,-0.1429602657795064,-0.14511364103486132,-0.1310530740092484,-0.10556775527225806,-0.074812579207967,-0.044343745782412874,-0.017600005147220023,0.005102667159640962,0.025544423079706953,0.045259419237027136,0.06419113369708421,0.08088753549731767,0.09310872561572889,0.09858088078785168,0.09628673469715582,0.08760628069573026,0.0762214598014053,0.06669254830639962,0.06235611941773548,0.06352479956385962,0.06765650113535639,0.07185958812264182,0.07504863862084662,0.07753677550294441,0.07937494734831788,0.0793750758917408,0.07536652832535148,0.06638997525696766,0.0553992845938725,0.04839387041862659,0.04961221232572319,0.05750756974967212,0.06519520233259682,0.06436773723632505,0.04998091308569458,0.024018029489065874,-0.004201281202138221,-0.02281764424466277,-0.024122040238532868,-0.008422354693284046,0.016658254343282712,0.04061759287699932,0.05512678827531002,0.0565997389019463,0.046510619110644795,0.030467996500029185,0.015609244835810445,0.007032168712840863,0.005616806421644499,0.008335829560850333,0.010210113973793837,0.007127731029631481,-0.0015358693417537664,-0.012802738565450339,-0.02262435924338428,-0.02803191932756821,-0.027618605413863868,-0.021242995903123008,-0.009134744164409432,0.008790669030705734,0.032425842345471814,0.06066264925298756,0
-0.032019336066638635,-0.051718631342018435,-0.07147993548316248,-0.09039921950958599,-0.10756339213838975,-0.1221832381410029,-0.13390463834364352,-0.14274237531294645,-0.14881415223890807,-0.15217425779955449,-0.1527543231683754,-0.15040036468224516,-0.14508997063292264,-0.1373474528376104,-0.12841844945753467,-0.11963001887278911,-0.11163131156630693,-0.10472186655228727,-0.09928412555628717,-0.09528289967217475,-0.09228100421916954,-0.0899667138705004,-0.08771402755535984,-0.08415182919855593,-0.0777170613285285,-0.06721448268717002,-0.052240357341439586,-0.03389711071318716,-0.014545726581463261,0.004024376490621212,0.02181873340456309,0.03983218142128168,0.058721812375683205,0.07842485325111105,0.09862627468971139,0.11917794150040907,0.13953316511007627,0.1581502685681407,0.17352597120813262,0.18572220921002702,0.1966060088038495,0.20895762024226838,0.22491198721886335,0.24496269195501932,0.2691845510778205,0.2994148782539112,0.3391510095991023,0.39013568615699945,0.44766233881047174,0.4979564323416265,0.5212212716443015,0.5008413642713408,0.4330035722357444,0.329277305253755,0.21084138025774038,0.09995928226957478,0.013635608241371111,-0.03997853954557583,-0.06286943528664107,-0.06668118031823168,-0.07039377224789857,-0.09428230058380332,-0.15051567541703148,-0.23607633044572143,-0.3338561075453896,-0.42126269985764564,-0.4806510499132245,-0.5058138791886355,-0.5016601522175349,-0.47875240731447843,-0.44701605872359595,-0.412599996070382,-0.37878947874021307,-0.3478896284616175,-0.3216180189759574,-0.30040151818536553,-0.28266093021884486,-0.2652718979092308,-0.24529649957028363,-0.22161465764783683,-0.19538069852689177,-0.16907831687921765,-0.14480349076763627,-0.1231014992680041,-0.10316911917790533,-0.0836805046594919,-0.06349633971721372,-0.04252832135378156,-0.022006538099061473,-0.0033332623044235454,0.012790642431753055,0.02589522640172906,0.03581957590598045,0.04368963099971077,0.051546215082999114,0.06086557089695608,0.0720189410846621,0.08451336229749123,0.0972684812589939,0.10908725723325902,0.11920928145491477,0.1274138948691063,0.13395167409894715,0.13989588115978177,0.1466939041607223,0.1547771970818105,0.1636094950971104,0.17300993944449086,0.18315081937754768,0.19362408978714868,0.2039927910059284,0.21490213130557145,0.22769189913331347,0.243445045440871,0.2623821801320063,0.2840088830232511,0.30899149947546867,0.34084741207774844,0.3837484352124454,0.43599596222475534,0.4836416677274267,0.5007380003773612,0.4592377065548969,0.3447119085879171,0.1683312331269644,-0.0334882803433467,-0.2132111715717971,-0.3336585631516607,-0.3841745142242733,-0.3808798979817806,-0.3527265031774108,-0.32445968430198124,-0.30655124070251827,-0.29557246309472757,-0.28198567837817645,-0.2586925667477127,-0.2248799181000687,-0.18463053323480177,-0.14292505279952333,-0.10258076714871006,-0.06512782947361256,-0.03409537672571753,-0.015449054066428653,-0.013438606148113433,-0.025939644717173353,-0.04425838975578754,-0.058148595473312054,-0.0615199041165805,-0.054585214426202386,-0.042515402030523716,-0.03178751274433046,-0.025888129465469173,-0.023676010217109664,-0.021560181838353645,-0.01683039130606515,-0.009708297466123152,-0.0037446075378714493,-0.004229477833099283,-0.014553496928821533,-0.03246214697240206,-0.049416729528938066,-0.055000506872616525,0
-0.07692915321241993,-0.07844271059769088,-0.08015366161110346,-0.0832158698625213,-0.08864407819992531,-0.09670872011156592,-0.10576480107091668,-0.11287021836891964,-0.11609243235873093,-0.11553217938680062,-0.11245257673305706,-0.10826988642757072,-0.10438149080189862,-0.10205346359262722,-0.10154846800004595,-0.10180929301319959,-0.1015114786998415,-0.09983570587313939,-0.09608273569349736,-0.08928749420538681,-0.07878242027513857,-0.06497251354918972,-0.049351368677628266,-0.03391884926371127,-0.02004243461370941,-0.0071076527666187345,0.007378264516238641,0.025992748743250402,0.05007184170153473,0.07979931579238478,0.1145258387479685,0.15277517523420334,0.19264010395232303,0.23265285050410453,0.27234344278792205,0.31233399274157525,0.35419642167285514,0.39973632541695203,0.4499487752467173,0.5048838915244538,0.5643942179496655,0.6282079750050218,0.6948485154769587,0.7599089068104362,0.8159067828246624,0.8595639064279513,0.9073590714377353,1.0013190071640319,1.179188796041539,1.4166944693624497,1.5943545042625022,1.5367976150327949,1.1170760556622772,0.35892606341073136,-0.5433345408216035,-1.315248186231417,-1.748450414110532,-1.80236276108921,-1.5958406260910785,-1.308650070972863,-1.0721374498387595,-0.9212502805601891,-0.8229645264350292,-0.7356259037553151,-0.6421024221343472,-0.544600778636783,-0.44849510988946456,-0.3552666940860904,-0.2634479505401358,-0.17167030425645907,-0.0809693726033208,0.004796795671673529,0.08140829024627481,0.15157024509080153,0.23244155791455728,0.34676938244019445,0.4930598876536766,0.6221285095081844,0.6500717727001903,0.5065665229422416,0.18783474685009824,-0.22502599311110655,-0.6010733315851707,-0.8275286147872979,-0.8652213160451045,-0.7560968420993346,-0.5843145036555968,-0.4236950821493247,-0.3071140404142567,-0.23166914414070344,-0.18249249168882947,-0.14799624896381208,-0.12075022298806003,-0.09543841203275263,-0.06953179230245371,-0.043450747421638514,-0.018516905201048484,0.004733492396984701,0.026227436352552508,0.04545325156643283,0.06181727539034958,0.0753145698829205,0.0858306127534275,0.09257440234617173,0.09518135087862821,0.09464924122330862,0.09277882868089746,0.09132141166824848,0.09152911795889343,0.09389912807419211,0.0980025236600194,0.10242960087585261,0.10527767582836546,0.10508251427165075,0.10137518403609581,0.09476796022002536,0.08688002527850118,0.07979667122302903,0.0751377241699552,0.07350412509884127,0.07438092330828232,0.07621404240007473,0.07702758820737957,0.07552434339767214,0.07172526848845226,0.06661714263913661,0.061258120347405215,0.05633093418156996,0.05248996178627638,0.05052510580677869,0.050621416252532,0.05184288478423436,0.05269398562664134,0.05167054215981431,0.047670276921744276,0.04082657510505891,0.0326361882134174,0.025043946836924926,0.019631905201284116,0.01717668762117719,0.01750674565813188,0.019570924699820046,0.021436131207445815,0.020985792782093844,0.017218571340730755,0.010624892493103813,0.0028855837924508364,-0.0035366812932758965,-0.006720791875898351,-0.006527328835337675,-0.003935698609863243,1.195783544371068e-05,0.004036315605412486,0.0066770828108583535,0.007137754907701995,0.005832059974248667,0.004318292845612446,0.0045171929603748835,0.00755050197242842,0.013396761208386267,0.0214128662411502,0.03063080087636217,0
-0.09234289218984801,-0.09927036328964595,-0.10356965740925211,-0.10527479624418437,-0.10557536950510472,-0.10552767556427975,-0.10590191630071093,-0.1075021739217569,-0.11070930794664413,-0.11487016148021681,-0.11852774753171255,-0.12018736837676407,-0.1190136924012843,-0.11499198832153296,-0.10861998299588915,-0.10089805705524087,-0.09316560010826502,-0.08617073476956794,-0.07962455540169688,-0.07289232775847737,-0.06532101721681469,-0.05570754558498562,-0.042473505757629315,-0.024671611322812464,-0.002587006818037539,0.022347427599747855,0.048340475810029905,0.07432680368483471,0.10016003945297015,0.1260773847914391,0.15294785466863103,0.1827287763870687,0.21722947166667095,0.256491175031823,0.29928951210052335,0.34464062213373026,0.39208077405577463,0.44103166413002187,0.49074867367260055,0.5413188645998409,0.5941708272863194,0.6507125282899594,0.7106758724359366,0.772079285052669,0.833052408331896,0.8954293585154451,0.9671992028915549,1.058458028736033,1.1697689759305392,1.2785448914757906,1.332990812895337,1.2625937055344827,1.006788108575925,0.5509418737473951,-0.05085255546920131,-0.6844281061026178,-1.217053004948052,-1.551521025453598,-1.6625154835438343,-1.5960261756862193,-1.4361153572969751,-1.261338752420921,-1.115584886670825,-1.005170657773047,-0.9158935930556769,-0.8331056488920947,-0.7511794296299658,-0.6717080668078836,-0.5977932145603359,-0.5301792456046961,-0.4672504988584223,-0.4072610823484277,-0.34942408412805775,-0.29353885151950565,-0.239932316867763,-0.1895744051484149,-0.14361425245260467,-0.10268866699866483,-0.06680565792135332,-0.03574832484505705,-0.008832570234795445,0.015517110255674219,0.038920697805871124,0.06203482561607121,0.08461387205280388,0.1056806201845881,0.12373716189063302,0.1376258332115335,0.14722633840931165,0.1533054432185156,0.15712879226930582,0.16024851074165214,0.1638261247106682,0.1679343782617061,0.1719627518011227,0.17522149016221492,0.1767238389535512,0.17524134698464916,0.17038813590508295,0.1631447521334669,0.15499853312498152,0.14726318230497606,0.14106375517104994,0.136951002538913,0.13436744152476265,0.131806124011669,0.1274986062118168,0.12042112821255496,0.11095630496276485,0.10019362505872074,0.08914533343501269,0.07908261031581558,0.07146832636425059,0.06702020975252189,0.06514979158167415,0.06428908305301438,0.06272437557018613,0.0590700239413091,0.05269240853487552,0.044408689991013967,0.03618600920094445,0.02985055845139923,0.02608156277755306,0.02435295004514912,0.02377572802165463,0.0237191567665,0.02343899905771015,0.021686731832073286,0.01748593853952313,0.011209205084749013,0.004278379850236585,-0.0017736510171819653,-0.005628215316377451,-0.006578168651762724,-0.00523641984911458,-0.0033973101506428825,-0.002708174374315404,-0.003774722369199972,-0.006552998743627046,-0.010566290029398517,-0.014790385465731618,-0.018168394407520577,-0.019841835137968736,-0.01908680370731655,-0.0159859414800799,-0.011750019074909902,-0.008195383601131343,-0.007020078494210866,-0.008726339760857993,-0.012164988888519478,-0.015430223701816846,-0.016960462267748076,-0.01622672220359311,-0.013800874414182146,-0.01059794089755231,-0.007248384669992194,-0.004342029302880445,-0.0027218729565773505,-0.0030169402812629887,-0.005090922666117004,-0.008024130129133836,-0.010370761883546164,0
-0.061734805938454346,-0.0627404818821423,-0.06468594536999972,-0.06627704254151043,-0.0664489177774137,-0.06470851465520855,-0.0607206785883534,-0.05436728677461241,-0.04669052133071367,-0.039699841172649054,-0.03495874652811151,-0.03271015389330025,-0.031874059810026334,-0.030923590343532703,-0.028796809349298843,-0.024679622687944748,-0.01756768618386902,-0.006869136371656781,0.006608394202688482,0.020568063738047544,0.03205546014726355,0.038622223030626054,0.03944665895117433,0.0357478301502706,0.029963457107142797,0.02424395723828183,0.019615796715557562,0.016364007490703873,0.014607012177982881,0.014553660558058262,0.01658057275127839,0.020799776592883547,0.027123175570179164,0.03617829920839846,0.049219720460193475,0.06719300715290216,0.09056902291576471,0.11962936704542922,0.15411436659597955,0.19270632615235683,0.23391159776621795,0.2774674839279196,0.32403117773454354,0.3738949173897682,0.4260499026057996,0.47755666463952473,0.5239721449927047,0.5610225392994301,0.5862073156442399,0.5993114151927927,0.6016320189039877,0.594948467494494,0.5815701473307429,0.564712106312574,0.5476667269446107,0.53214724426126,0.5169810839823907,0.49798766132215605,0.47026519663083644,0.4317359627286949,0.3823983654878941,0.31753370301650385,0.2228238306493341,0.07945611627826446,-0.12193293595274372,-0.3678800826616885,-0.6210578798151843,-0.8351022654644521,-0.9756843134284133,-1.0338639341194176,-1.0239137983573705,-0.9695323304069404,-0.8911884205760249,-0.8030370465411023,-0.7165764747487504,-0.6433685243851629,-0.5921386539583801,-0.5624612424991021,-0.542846529250002,-0.517945723618065,-0.4790902705702951,-0.42827828138053253,-0.3738499230506718,-0.3236455054079816,-0.28081458112795077,-0.2441573181881272,-0.21134690306928142,-0.18118318040599635,-0.15300208097434828,-0.1253156591323001,-0.09623495280881225,-0.0649505422546916,-0.03246857075940851,-0.001411005518908437,0.02472700705218961,0.04303869323403156,0.05318420776458416,0.05809498089553025,0.06236724438971414,0.06962167282283879,0.08055533791315565,0.09323110001105074,0.10537239878193867,0.11591107109483051,0.12447251474580623,0.13040737022845114,0.13284018181085544,0.1314528321601956,0.1272499370266943,0.12266157342663987,0.12041151392706645,0.12217471109088363,0.12830273505529716,0.13783645396551392,0.14889008832125458,0.16023497060578962,0.1719693564911902,0.1841260395933424,0.19582098293567535,0.20598080192768484,0.21381047360714825,0.2182938263583637,0.21769692829147216,0.20989291619099604,0.19355360532422877,0.16887870071001024,0.1372700429380449,0.10161719668623229,0.06663037707569587,0.03711135822964857,0.016011995454507134,0.0042122241502409626,0.0004206779787134761,0.0014077220577947969,0.003993767730151483,0.006792686959688647,0.009895801715563462,0.013641696525646872,0.017715989794006626,0.02101871992824418,0.022435973650298358,0.02190131477793091,0.0208201956892562,0.021444373748143713,0.02557246756561796,0.03333056133613249,0.042423832163934985,0.0484689506814175,0.04728286453885489,0.0381729566171672,0.02525566447729403,0.01537298535317817,0.01420957465263165,0.022778257884292934,0.036421075680640874,0.047783795503168185,0.05142925864991844,0.046283586523625235,0.035510413865133594,0.024681514614222407,0.018556875855210535,0.01949273735182639,0
-0.14620016573419936,-0.1486800694418465,-0.15351924069390468,-0.1613766346406641,-0.1714540023073544,-0.18157994337281588,-0.18926558202409904,-0.19343292467277262,-0.19471027362654592,-0.1940358439058505,-0.19199336963974184,-0.1894014430956253,-0.1872628855868926,-0.18606862874389848,-0.18539389229280856,-0.18368911190853388,-0.17896812793998734,-0.16988336816161198,-0.15592624407567698,-0.13748781389264875,-0.11576632604841981,-0.09219180929964456,-0.06778014662886708,-0.042516487107278095,-0.015536702069874671,0.014371546444782174,0.04890677689578497,0.08961524530858489,0.13668121606395428,0.18929588884675247,0.2465933063563113,0.30759583408506413,0.3713888467746669,0.43760582563491796,0.5062911623481052,0.578039635058735,0.6542570711944004,0.7362709100575832,0.8245204715077638,0.9190448146236656,1.0198391498998318,1.1264168078282033,1.2368379170996675,1.3452377467925865,1.4405043602223127,1.5166036349812682,1.6003573641525064,1.7657047882945216,2.0792397454175426,2.491787398878033,2.784367786401399,2.6529042631968607,1.8991019396444544,0.5969560299146721,-0.8989118207667337,-2.1304447070475003,-2.785233231458892,-2.8442102951666515,-2.534896207993062,-2.149687367489899,-1.8729903846441744,-1.7254567826326084,-1.6338033681486495,-1.5346484454521843,-1.4139025635572493,-1.2835339395623082,-1.1546651757866435,-1.0309723530289472,-0.9127189455250767,-0.8004228292138437,-0.6953711252365745,-0.598898200495927,-0.5113555565384842,-0.43086897833014826,-0.3538273299445164,-0.27816860319032766,-0.20603610181384252,-0.1425025365306002,-0.09168990080078501,-0.0532469743157184,-0.021757468074593278,0.00987913280107161,0.045853228283570746,0.08555159473233259,0.12543616342810693,0.16229989696630023,0.19472951125782276,0.22215614023765648,0.24321437343720806,0.25656881399868553,0.26533685907620064,0.27993386102399387,0.3141171517745733,0.3758707561444722,0.458670831773199,0.5391870996253174,0.5849282360363623,0.5684996219211286,0.4790528065461381,0.32340339323385003,0.11967091157577583,-0.1074851822633616,-0.32689954147082273,-0.5007965373554975,-0.5904870475662846,-0.5700497637354541,-0.4420396781607463,-0.24297035662750144,-0.030882290671807946,0.1397249800427885,0.24053326188714258,0.2759846581486711,0.2716475006038095,0.2549028791451654,0.24163076135433523,0.23467431510165088,0.23023726143991644,0.2247545636032342,0.2172188522560902,0.20733261154859317,0.19344918392097993,0.17277512069289125,0.14337730676565708,0.10635414948931744,0.06643324126451287,0.030597109843176935,0.005122095643862841,-0.00799006208671153,-0.01179766069845266,-0.011231755718953202,-0.010103249922428498,-0.010634727013834227,-0.013724126410927188,-0.01896710645854538,-0.02496137946370283,-0.030227838341713276,-0.03398780474798058,-0.03581285195723646,-0.03535326475501762,-0.03318304177595681,-0.03081655686818028,-0.029417071527472454,-0.029228242203558227,-0.029962034402567818,-0.03127231043349009,-0.03272619272765942,-0.0333639255351636,-0.03207840770861416,-0.028433900205045805,-0.022765929678650206,-0.01617102021778513,-0.010331595956301107,-0.006538461008474301,-0.004762913898599912,-0.0037189554195492386,-0.0018745297865646058,0.0016686313153858453,0.007455067969640601,0.015801471902946014,0.025713772330844147,0.03488164307335838,0.04141967563996075,0
-0.049041465620633544,-0.05281316229042,-0.05531028823146016,-0.05650658637529107,-0.057165743833283274,-0.05845934638505475,-0.06197833871637603,-0.06909145746787618,-0.0796790530511203,-0.09188310495535994,-0.10326431484187622,-0.1119605035388256,-0.1169013755954049,-0.11779858319534331,-0.11557858499030396,-0.11208189673223898,-0.10871091145351539,-0.1059640259826938,-0.1039518027564971,-0.10230959833355216,-0.0997923457577164,-0.09448944715206356,-0.084814870750795,-0.07061956666236188,-0.05307943054523629,-0.033583401941752855,-0.013348280655283299,0.006234301262939879,0.024105145207097604,0.04075413120252612,0.058094896342548344,0.07797922575505666,0.1015979993984453,0.12953162729991557,0.1610186869438648,0.19398003134937822,0.22665223527498285,0.2589313175582901,0.29234687825837224,0.32892926647946646,0.36979379334113316,0.414756419353989,0.463071705406235,0.5141857920240572,0.5682986621607841,0.6263872419390464,0.6886441278243852,0.7517979343378975,0.8073327262161378,0.8427647984756885,0.8462149525062282,0.8122334419278363,0.7469392950580213,0.6707698426195391,0.6157906669591373,0.6125373455545071,0.6645830532160286,0.7247703274409496,0.6997866105082985,0.4946703764484577,0.07570647957704442,-0.4908061730676756,-1.0573170732244708,-1.466761897408042,-1.632596537418916,-1.5744744049485182,-1.3897224669087045,-1.1873660794981855,-1.0324797201982014,-0.9319732186064167,-0.8589736229812174,-0.7872008747153121,-0.7073907500385069,-0.622728915022504,-0.5389263024602648,-0.45939763894934993,-0.38521366769094567,-0.31677435770996776,-0.2545385204209937,-0.19833864739384144,-0.1473477195797483,-0.10096261698607828,-0.05882002980805032,-0.020312781195830243,0.014841074594260012,0.04580580295961642,0.0712702006616592,0.09084017954329582,0.10541028929913579,0.11645203973862742,0.12530500614213472,0.13309669665288787,0.1408958066371575,0.1492739804547855,0.1577517692454612,0.1650591466015099,0.16990178376352294,0.17163675068674134,0.17040071356666153,0.1667922853799801,0.16195130393342944,0.1576260070788778,0.15542410944075374,0.155902045288772,0.15804406714260022,0.15945016710745727,0.1578338035246098,0.1526607154476345,0.14487634636843055,0.13552979651485103,0.1254533092871435,0.11571349058554298,0.10749895013987228,0.10139369350212218,0.09700051378231918,0.09345364602906737,0.0899126282106787,0.08541974976206014,0.07922700114695047,0.07182782930256815,0.06471306949488333,0.058827416074191494,0.054102032319213934,0.050040804018556345,0.04575972747883053,0.03975328125023182,0.030634399435310322,0.018464889133320193,0.004888632256772336,-0.008200617599257755,-0.019602338856084374,-0.028384261731593405,-0.03359354035145916,-0.034997320451406286,-0.0335543236496776,-0.030966998612290474,-0.02878316615174563,-0.027814566015926287,-0.028535450448482838,-0.031164090241579276,-0.03455072552135115,-0.03636634863669891,-0.03530781416461002,-0.0320697027083922,-0.0281111859651941,-0.02455568899284729,-0.022108137381592598,-0.021227160660018472,-0.022202772397425456,-0.02479701626778736,-0.02789469386005976,-0.029974407123860895,-0.029673224637054043,-0.026298124682483232,-0.020448063560410894,-0.01364555049482849,-0.007423399555747364,-0.00293136723840556,-0.00047103897800292,0.0008992937100133101,0.002707839316964417,0.006079037648607267,0
-0.04149065235896185,-0.048680348263008634,-0.05529389352803092,-0.06249818354306258,-0.07180478777147208,-0.08395035772991304,-0.09831785184692907,-0.1132956430804683,-0.12710250562751524,-0.13819348097220277,-0.14564730317379687,-0.15006835248058664,-0.1533566024481188,-0.1570066341959551,-0.16120599811041234,-0.16520383356992607,-0.167569404623176,-0.16615684799969513,-0.1585643154062525,-0.143476838139719,-0.12165438415765147,-0.09544758154343519,-0.06805430132604878,-0.04288498700500446,-0.02183934370289122,-0.0037514080893059354,0.014408848689729619,0.03468330455091077,0.05710756377645856,0.08097275541863155,0.10594730739707203,0.131543550903493,0.15624190627914208,0.17824092054447052,0.1970702576944702,0.21425581706789432,0.23264690857565393,0.25527452157937314,0.28496278315358514,0.3241940007344255,0.374239013551339,0.43448113971365965,0.5025823948522634,0.5752162424235626,0.6497557013637925,0.7273075759310196,0.815195556810741,0.9238189660244548,1.0544083532280044,1.1810244024007897,1.239923444917928,1.1454211477366139,0.8357170794618524,0.32216428303640354,-0.2946970663857166,-0.8598515858597346,-1.2338510856204956,-1.35653490270388,-1.2649677829009436,-1.0582041368068464,-0.8371148550298819,-0.6594641900233509,-0.5329428986163528,-0.438572800932332,-0.35834584724947544,-0.2865867870938198,-0.2253066549065001,-0.17689042233241808,-0.1415622487244917,-0.11771970245823919,-0.10300031004953192,-0.09511749455506638,-0.0919873472512335,-0.09236399083790148,-0.09620190907927835,-0.10335091936246854,-0.11269158884983076,-0.12243296569044307,-0.12998870692823164,-0.13250392391108262,-0.12865869249648676,-0.11927365843976563,-0.10613389497684123,-0.09102455519047375,-0.07560761501022806,-0.06127542865537578,-0.04835212802825195,-0.03574429770950628,-0.02239566496417935,-0.008584473122013436,0.00478226160740422,0.01704284435072155,0.027346340097649344,0.034091918598223823,0.0353790217823161,0.029640588852820282,0.015937718506410167,-0.00521344284115164,-0.03128294179007978,-0.05882917150923949,-0.08499081544967085,-0.10814685280479391,-0.12804881593371276,-0.14526602927496862,-0.16031935722523705,-0.17340337526871757,-0.18447623818142433,-0.19310326818378287,-0.19812436341168424,-0.19808351138025498,-0.19266695452732602,-0.18317145490762182,-0.17127862759232138,-0.15826442891292974,-0.14509209596121164,-0.13245914015405189,-0.12096435824802831,-0.11082817483443355,-0.10127597456268882,-0.09123597838922261,-0.08056826523664332,-0.06988516235387236,-0.05965749956053711,-0.049881568276902266,-0.04012951163081687,-0.029644341061861118,-0.01728832511406463,-0.00136364113459454,0.01987920715643935,0.04762530233294419,0.08289726753102891,0.12627422128320842,0.17679533914416118,0.23262981534232113,0.292492458004512,0.35581606257294196,0.4227692983458733,0.49413776442582436,0.5704789811040527,0.6517914887467166,0.7376513781262922,0.8270941947094663,0.919000029124519,1.012464022023216,1.105819958915851,1.1951568414833202,1.2755053028151953,1.350072099440963,1.4457933175861621,1.6111062486789862,1.869635827508314,2.152686609358699,2.2809030953243496,2.0414185889243015,1.3276889684704776,0.24448838713825244,-0.9115901159737567,-1.7989094473009304,-2.2099132501160987,-2.1629000585472298,-1.8532649901026623,-1.513564491397896,0
-0.13627267249587904,-0.13324804040696958,-0.1325735421967669,-0.13452363699940592,-0.1385665798296095,-0.1434977016736368,-0.1476911822340778,-0.14947743559672466,-0.1476947570091424,-0.142328003957199,-0.13469522948876234,-0.12676915129929256,-0.12002685876505861,-0.11468703066574892,-0.10954369762986028,-0.10249008414640355,-0.09188473883538796,-0.0773876431231626,-0.05923374614362223,-0.037621738456992335,-0.01330510123026414,0.012412151032250972,0.03876603489962709,0.06579843182422143,0.09399418638626876,0.12439444543692131,0.15846023067944026,0.19733055957086262,0.24113101736869383,0.28894159786629064,0.33941404799532654,0.391473481392861,0.4446245646768954,0.49886703131027144,0.554699947729145,0.6132351671817268,0.6754290904547867,0.7404202869571312,0.8052550398493048,0.867123676023622,0.9261953709701326,0.9861471190134268,1.0506680468739604,1.1185703675441232,1.1852962474589266,1.257324232211424,1.3673112596814236,1.5570416788419468,1.8201146792501177,2.052765533433389,2.072943120480712,1.7172267792104277,0.9581813215862631,-0.04647420107002545,-1.0218509875566517,-1.7224763537847054,-2.057665334249713,-2.1124475289548137,-2.060950907650854,-2.044368133512105,-2.097389516805292,-2.1602782761417574,-2.147252438653606,-2.0079413620786397,-1.7481613059551264,-1.4192450629894566,-1.0919990488785918,-0.8252436913580428,-0.6426462035304066,-0.5308340502907246,-0.4574715058466632,-0.39371265425070123,-0.3260042447044983,-0.25420366404539263,-0.18297775066069233,-0.11497044753879734,-0.04966010506427926,0.013436518378892898,0.07134930358848779,0.11797363130687716,0.14843964745104998,0.16331319754509172,0.1691185635179921,0.1755323914314911,0.19008614974594906,0.21289987868580276,0.23653919400409454,0.25184533459028585,0.2545640776240229,0.2475197085587124,0.23768172928249767,0.23121114418315858,0.23005027100021433,0.2321572966481616,0.23471227937268646,0.2372253683632718,0.2413390422264407,0.24759976296953073,0.25349339085609013,0.25534381577656584,0.25219373859125516,0.24840847215118395,0.2522159597287733,0.26978405624733576,0.29924498559052676,0.33002018036100744,0.34835674552417784,0.34563896283016715,0.3235336949763561,0.2917044928284329,0.26052662581113073,0.23536850641625615,0.21597637668249248,0.19930391210826479,0.18241492610219323,0.16362050455818422,0.14185579450143251,0.11576507450450199,0.0842684476611173,0.04863493409244888,0.013867104532321074,-0.013401776727323733,-0.02989897025172833,-0.03879226664077297,-0.047757707890128315,-0.0636604020148057,-0.08796678097800956,-0.11649885648094223,-0.14349731199201993,-0.16625072809869132,-0.18649430762397945,-0.20800348729483267,-0.23287474211650622,-0.259104405255622,-0.28082143325166875,-0.29122610022817935,-0.28601219216603724,-0.26502988991538434,-0.23241857402724053,-0.19534097516144378,-0.16097393578274907,-0.13348164975429125,-0.11320840121431051,-0.09819726335202805,-0.08621680560465737,-0.07567068613028169,-0.06550922493839917,-0.054843440212646394,-0.04288452227391648,-0.029690645926401017,-0.016572369876629463,-0.004997608240409443,0.004443937683623556,0.011796490829418999,0.017580650513266877,0.022914977102198,0.028978645273471028,0.0366995243379418,0.04666897168216111,0.05840994203162517,0.0704791276920146,0.08165375982126488,0
0.627949582649856,0.684379418983994,0.7419575104222488,0.7978254881478883,0.8526514191197856,0.9222874854126776,1.0393703773770442,1.224446913852554,1.4393713562953419,1.5694938001551164,1.4676541767903801,1.0440841763440336,0.3428823177825503,-0.4571619207406348,-1.1303726802842284,-1.5255802232940718,-1.636702356433977,-1.5772906436551388,-1.4877498796454771,-1.4479612512194144,-1.4526309944972093,-1.4508561949648555,-1.4019520011270046,-1.3006704979715176,-1.16687964339692,-1.0239355495267566,-0.8857744779968151,-0.7561518349342173,-0.633409752173801,-0.5146280563407395,-0.3976901302164735,-0.2817113630901013,-0.16624155590701983,-0.05049273392197429,0.06643817914841378,0.18502060434263326,0.30527815406589837,0.42673721122459585,0.5480384490391901,0.6676527476246703,0.7852717506644643,0.9013658787182548,1.015010873864994,1.1222849457260848,1.2186834998442782,1.3109284350629995,1.4309718808964056,1.6227541875051354,1.8899144792459737,2.1464796508191553,2.22826024127441,1.97806363359495,1.3553482985243723,0.48975123329206827,-0.3705743155798539,-0.9891659767682937,-1.2624197541072695,-1.2497967031875814,-1.1033893788295224,-0.9608888310903454,-0.879390341544353,-0.8430574700315124,-0.8155707479322819,-0.7797499376445912,-0.7387626201079528,-0.6995044729167892,-0.6629041792792733,-0.6242129216826069,-0.5770654341157754,-0.5182564942004751,-0.45154095035258385,-0.3876063096571016,-0.33875843383754173,-0.311025523399797,-0.29969937268471714,-0.29267434644429047,-0.27902894206388584,-0.255338774671906,-0.22538728122861323,-0.19575626929223544,-0.17162182776751733,-0.15466426767767394,-0.14388397814310988,-0.13851830506554585,-0.1386483067824939,-0.14082212808015449,-0.13449817332109293,-0.10652655763625792,-0.05117292390877186,0.02346031148586404,0.0987583910454335,0.15677777745327964,0.19006567179664455,0.2023677311148995,0.2023333210724904,0.19750747481969577,0.19243667798832165,0.19027963950717774,0.19472072513564959,0.20839460220903575,0.22820804614507434,0.24331084817808263,0.23982014697611503,0.2093029257002032,0.15415415763109735,0.08617410810171504,0.02074330335890738,-0.02890692819713307,-0.05539000059960403,-0.058711980425997845,-0.044877587109512465,-0.021490877274317262,0.006535331950332582,0.03774608657444484,0.07160369004491396,0.10494323817913856,0.13035864974455036,0.1396018506848271,0.13077215645373202,0.11252505539691274,0.0995056834386028,0.10101299686362858,0.11294512974622829,0.12109577742048547,0.1122195791936191,0.08344395857071177,0.044518702195801986,0.01259377164252587,0.004057936476946471,0.028643794251977436,0.08549971796126278,0.16007474522494017,0.22470815380118958,0.24559222738945047,0.19551831539744202,0.0672944778487106,-0.12038702090030781,-0.32898828517515266,-0.5141454059556709,-0.6391069909075322,-0.6823135271918349,-0.6401585888433867,-0.5270644056689943,-0.37207140309124437,-0.211089135170347,-0.07652497232291262,0.012203935235878288,0.05298078047215787,0.05793207841509897,0.04593701318072652,0.035377479897696865,0.03892135152032563,0.06014098188215572,0.09263064326935674,0.12344118259859481,0.14007601159050753,0.1369054545440414,0.11779615467600278,0.0932914655938041,0.07279624206188032,0.058083759005397854,0.04485131144649813,0
-0.06054650115645095,-0.06296148938006212,-0.06232368337887814,-0.05891933236710499,-0.05466469168818494,-0.05195495416616586,-0.05172599883616406,-0.052981251364331315,-0.05422068659082111,-0.05465338741248435,-0.054176634218935336,-0.052881059784350544,-0.05073679939575956,-0.0475745222722691,-0.04333608104580232,-0.038492250138183276,-0.03414072036416306,-0.0312860752631777,-0.02972140750214102,-0.027549260941263788,-0.022139811264295046,-0.011937618925862686,0.002764652047828421,0.020517220264625123,0.03962615491444752,0.058710790214307015,0.07714851852344715,0.09524190913603556,0.11400748187949605,0.13490045474559081,0.15916144382987027,0.1871904329506639,0.21867312150394774,0.25265166528921346,0.28747369941179446,0.32125082348152567,0.3524728331153162,0.3806250613030666,0.40650932898795306,0.4316387418316711,0.45748461238320015,0.48533002985372875,0.5152713750806055,0.544189419670084,0.5667301652040845,0.5832014245090269,0.6093603074257252,0.6712032797636371,0.7760639005659743,0.8815670645347,0.896904818697841,0.7284335390195033,0.3456968275450645,-0.1799293469637937,-0.700115097683466,-1.067129548465854,-1.2113324403930044,-1.1659584617711856,-1.0275779917346197,-0.8883224579508502,-0.7904310452027907,-0.7276938294257917,-0.6783246076471054,-0.6328016799959961,-0.5958818934526711,-0.5728028618227043,-0.5592339939720122,-0.5430758722719169,-0.5136279049408706,-0.4684027240740715,-0.41233139519562045,-0.35242633930012357,-0.29346301814698184,-0.2370631492689482,-0.18329220005560215,-0.13268042124796942,-0.0866367314685434,-0.045796662530000046,-0.008801297027628247,0.026237658757600008,0.05973936840847066,0.0910432006397559,0.11969671064432322,0.1453966682849323,0.16762302022095937,0.18611029870467677,0.20114348595628528,0.2129537721995119,0.22166929995349716,0.22820161081559565,0.23397807773543108,0.23950386951256875,0.24376428745065792,0.2449874887121603,0.2416903247343308,0.23284240534052825,0.2175451619622711,0.19544747441132504,0.16751992812371824,0.13598051688908747,0.10349365496915404,0.07255921156296098,0.04502582488454693,0.02127426754074002,9.825376442019161e-05,-0.020086440280799662,-0.040035694946902484,-0.05916665187135905,-0.07548762734260839,-0.08644499201409597,-0.09042575753628365,-0.08730020202794704,-0.07798455767433857,-0.06421998579765906,-0.04826292436180979,-0.03192720949764839,-0.01585545802217364,0.0001312043770176248,0.016605921416488336,0.0347612591130017,0.05606961202356997,0.08131514855534938,0.11021734621652632,0.1417856682975519,0.1749396031583754,0.20877745138621734,0.24242383808645274,0.2750747645558075,0.30605269349563746,0.33453715334992007,0.35930241051040007,0.3784974326628873,0.3896132102967664,0.39010002719089404,0.3784183137220238,0.3543516807635038,0.3175881812273111,0.2659339414362725,0.19564184827588568,0.10398997259177459,-0.007258338474953781,-0.12902837294500435,-0.24541727731769575,-0.3388806904812778,-0.39729178555103756,-0.4185957660954216,-0.41068460008529123,-0.3865764946673847,-0.35756142217953013,-0.32842969081261664,-0.29788730587613127,-0.26296930458524564,-0.22211564832642952,-0.17388792957766783,-0.11408217435363732,-0.03616902974949348,0.06330251736459996,0.17811716614470918,0.28928283255770587,0.3679249792794447,0.3853951025761161,0.3267832607622679,0
-0.3535226753792906,-0.3548640821382096,-0.3551288368463533,-0.3582125468395793,-0.36713785544673466,-0.38218234449558186,-0.400487067004411,-0.41729823340668093,-0.4277355035046338,-0.4290067707928316,-0.4216270478297163,-0.40837884466532043,-0.3924372618895914,-0.37577642613853424,-0.3584837273545432,-0.3395425285136119,-0.3175011584968065,-0.29039981693857253,-0.25642943662212764,-0.214725741077433,-0.1652807364142962,-0.10895977336532316,-0.047553560756738104,0.01720825977062973,0.0850440517471976,0.15717459309930365,0.2349773255521743,0.3193382574081532,0.41118466195703035,0.5115646515944485,0.6210965878650552,0.7396124646169947,0.8662373025759763,0.9998816745145604,1.1397439226684207,1.2856982018220884,1.4385248151043497,1.5994024628111245,1.7693717990206992,1.9497614381043977,2.142525409037618,2.348917291811366,2.5651267566247276,2.7754736495543204,2.9534831890641335,3.0935791321909383,3.2704545404747107,3.6428571547555477,4.314184008726734,5.125661485765483,5.593582195236282,5.119654508172373,3.381999203241228,0.6343428306166532,-2.341281398006965,-4.6386499194878725,-5.717668763090684,-5.64077525438748,-4.9199732662753295,-4.134441424607418,-3.6101481853568176,-3.3516892450199545,-3.203843600348445,-3.047045580305002,-2.8577400133771365,-2.657824042261645,-2.4638123781319043,-2.2753556584843824,-2.0842164271484176,-1.8838383858944447,-1.6737592768911753,-1.4602465649167804,-1.2546448274147595,-1.069786254966037,-0.9145275808376194,-0.7891051692285058,-0.6850145920442355,-0.5894401754650873,-0.490764586479564,-0.38196532912644654,-0.26163859986387306,-0.13402239776882824,-0.008226869375663415,0.10403619312560547,0.19275333996007654,0.2549291041502075,0.296911494645258,0.3306177544574031,0.365776479235714,0.4037741661910438,0.43797149360560994,0.4606225112802241,0.47057995288742444,0.47433559280179777,0.4792977067771143,0.4866561038801707,0.4911250411435736,0.4870559075636962,0.4746737355520748,0.4616760614321218,0.45961432025945037,0.4766102463287517,0.5102870712727721,0.5461829878705368,0.5638382616246851,0.5477594279208421,0.4966830136820475,0.42534284737140454,0.3581926816179306,0.3179333165132855,0.3136295664447503,0.33558904531707573,0.36131500496177943,0.36886849866234833,0.3489502507874213,0.3090709477179831,0.2695161561838494,0.2545552690849093,0.2816796597735475,0.35179856204898075,0.4448626065559738,0.5249176795848717,0.5541886605068278,0.5089942877457531,0.3881676911533318,0.210186921583946,0.0033125560819339955,-0.20312408193429854,-0.38202439408328726,-0.5091710948482013,-0.5663683204588084,-0.5481027491427123,-0.46680886288525647,-0.3506463915774273,-0.23293627477921686,-0.1387604223045263,-0.07657337739860573,-0.03946993412520222,-0.013945749066046599,0.010409492717032346,0.03556903144543443,0.05546344152210415,0.06084810266172194,0.04603708533863057,0.014005931236150768,-0.023101010448696103,-0.04950525602111573,-0.05493556739580992,-0.04019166187634565,-0.01452151239454988,0.011990303435063666,0.03393364417359606,0.0496983679822362,0.05715955389607736,0.05210384279426879,0.03121113640210914,-0.00342168071480093,-0.04192318416772384,-0.06854642450357909,-0.06833273985399439,-0.03625491541470871,0.017123786615087264,0
0.16943134829925127,0.16394136097978193,0.15631413129084532,0.14802036609310132,0.14059848371037206,0.1347005790763657,0.13012196789878347,0.12640165691928287,0.12280928021465151,0.11818906323712589,0.11174516544314216,0.10392014879284493,0.09579142185176202,0.08812838168119921,0.08159798710802672,0.07671816373803243,0.07313605779739163,0.06987350853359323,0.0659414446726427,0.060316511629198974,0.05258085679385904,0.04377469207719179,0.03573266466603511,0.03008095274320703,0.028148270663167035,0.030777570735980708,0.03763803807176826,0.04703291828295639,0.057053066171986994,0.06708445450476652,0.07758255255337637,0.08893760802779099,0.10155737871337087,0.1164295412946342,0.13483023091882865,0.15739390404532544,0.18351552878820704,0.21170891671715775,0.2404519499075454,0.2689274752577216,0.2972325869587178,0.3260658307971087,0.3564891423785784,0.3892318857767416,0.4234138329655528,0.45733244622241154,0.49323335108160876,0.54161239112255,0.6154240940302329,0.7110241942925281,0.7890268334332194,0.7778852896543513,0.610239375414878,0.2726659723791915,-0.1683913657090161,-0.5894035208985592,-0.871692780415363,-0.9620664603683269,-0.8911990992335785,-0.7415179351515497,-0.5933477326728036,-0.48704837891399655,-0.4188457588524392,-0.36200758893344687,-0.29205091085742246,-0.20150574630461343,-0.10371143984772108,-0.02858570835842257,-0.009497024447229094,-0.06319462225203214,-0.17515844880448836,-0.30386379568792987,-0.4019125038762149,-0.43884396554197547,-0.412217188004636,-0.3427475069987819,-0.25959586021873293,-0.18668758197260965,-0.1363207039082761,-0.11004825150862213,-0.1025853694108597,-0.10418607748776211,-0.1030363232596929,-0.09103373554614444,-0.06914395587611938,-0.045800082471469536,-0.029495446920511176,-0.02268397885510816,-0.020924996908987234,-0.01657156614480848,-0.003930087004623231,0.01810638229109829,0.04670700024401139,0.07651436632051375,0.10095076697148066,0.11436951299513246,0.1145019873768821,0.10324911800817498,0.08523960760842429,0.06583339860011171,0.04989664247470335,0.040543858122879986,0.037920555895536084,0.03998642698305488,0.044790003424767445,0.05155019367853507,0.06011592735507358,0.07032833964523139,0.08184128984321018,0.09390953559016592,0.10551923217674253,0.11599071044702916,0.12504901873962931,0.13243791375353814,0.13750851262119596,0.13868998454768514,0.13355208823500325,0.12001369139494435,0.097831072321483,0.06910623217529746,0.037687018215520084,0.008264977150811495,-0.014562418024872738,-0.027873492841343984,-0.03183766271779917,-0.02906568904710073,-0.022854361837988363,-0.01606162880744244,-0.010463580384485647,-0.006639698168527327,-0.004108263521154526,-0.0016236280795423191,0.0018747497161918768,0.006703413504582183,0.012652233955799444,0.019172474919888653,0.0256573175149115,0.03136676642286362,0.03505903362861086,0.03547531001063675,0.0321342821442203,0.02556511426695603,0.01699665167518857,0.007993480753410071,0.0004419654572623555,-0.004203286353095382,-0.006154314476839623,-0.0069394461804847245,-0.008038492401583695,-0.010090545045854864,-0.012645544913103575,-0.014711209550352673,-0.015720567712606368,-0.015424538023765607,-0.013293709944757265,-0.009080392374372652,-0.003769355731686251,0.0007821429425422374,0.0031954837272867333,0.003370905602741432,0.0020581823750613895,-0.00015201450938084025,0
-0.026713938729245337,-0.015561512795449962,-0.00492070634879091,0.008306668338599214,0.02934712391186462,0.06288420121950267,0.1115589391454341,0.17462423519593717,0.24485575168916676,0.30595003234705515,0.3347753624995275,0.31020434905548355,0.22440582375950205,0.08989498612397369,-0.06226979707362444,-0.1945204411893121,-0.2795773814519382,-0.31117630239469496,-0.30249083532703686,-0.27520154841677236,-0.24750521618846488,-0.2281024888785482,-0.2175556721522019,-0.2130507785401446,-0.2115888230569042,-0.21054531611953195,-0.20684631301227158,-0.1959223029473323,-0.1726096206588869,-0.1343735294113472,-0.08399201265211784,-0.029152484410948896,0.02124804861034167,0.0620806070152922,0.09575206348327589,0.13297352677930568,0.1887365261029974,0.2745388275961953,0.3922037592787821,0.5334945077313373,0.6848675145742666,0.8327430608588722,0.9647309029493162,1.0674683469059796,1.1267125808465532,1.1343522548295255,1.099953834116191,1.0570737114987336,1.0513231489308938,1.105018291560067,1.1790583446235972,1.1710724482779045,0.9671945736282267,0.5200025498823715,-0.10159072433108075,-0.7326231201559052,-1.1980107381362874,-1.4086556149389144,-1.400552768957684,-1.292678428430589,-1.2006166020049545,-1.1700378919483656,-1.1713268919504958,-1.1466335377781793,-1.0620140639860203,-0.9241293050271611,-0.7628898033304701,-0.6068568872810868,-0.4698916688732094,-0.3521013923377786,-0.24938905107921785,-0.162151860398703,-0.0960438912724352,-0.055956907835829,-0.04049381452287462,-0.04175562805391564,-0.04935772620349951,-0.05435252625609384,-0.05043884185951915,-0.03414925668889744,-0.00549798157376051,0.032180795908323234,0.0737361833001402,0.11394414232220015,0.1485908471134074,0.17487454660002472,0.19172851743504224,0.19991548412246604,0.20113910027993043,0.19708447917746208,0.18934465299277367,0.17916205416717712,0.16680552755187367,0.1519396290245165,0.13477052362905373,0.11631976892407644,0.09730058417606399,0.07685750764729693,0.05259142415986695,0.021874090059847733,-0.016487556115957258,-0.06118773747006346,-0.10856933163933596,-0.15379612663719683,-0.19203338586479368,-0.21905417878809286,-0.23187107457396672,-0.22945549215560523,-0.21296619227654356,-0.18579277738647643,-0.15334382738921723,-0.12161996741520807,-0.09470921243361116,-0.07314301136503322,-0.05470722058281615,-0.03678790564880718,-0.018059832664440403,0.0012428460631047078,0.019714528487722295,0.03592046485410953,0.049953616012714946,0.06308299263442674,0.07589972407585381,0.08822141269267561,0.10053529751501128,0.11421402403671968,0.13060966326251797,0.15047543698656335,0.17377218706111588,0.19995566116578375,0.22857664246427234,0.2594667138309939,0.29259995053817583,0.3281163562295121,0.36653961494514803,0.4086886270249242,0.4549755975738072,0.5049985870580784,0.5581329336198284,0.6139399200663027,0.6712433285600263,0.7264316317135585,0.7731371526667344,0.8079434269689476,0.8449309156024235,0.9239471196454815,1.0832474679842878,1.3014059893349512,1.4646221476195787,1.40713415110573,1.0125007425505614,0.30880852297518907,-0.517211612357341,-1.2086641484607585,-1.575415955804878,-1.588751611371721,-1.373581200117372,-1.113990245491693,-0.944871833626514,-0.8985659291582981,-0.9274520379313234,-0.9644838105789582,0
1.963777192423478,2.142876838955689,1.9060776095213816,1.1159319511342003,-0.10698702875494386,-1.4073692051510298,-2.379937999477421,-2.7917173270186497,-2.685553778936373,-2.3052255374405566,-1.917675892183655,-1.6656600940596664,-1.5393715293385637,-1.4582888057933558,-1.3661179859578807,-1.2548236660501324,-1.136339829960786,-1.0197164686206108,-0.9079724546275837,-0.801526794916569,-0.7002050341668044,-0.6038906256125391,-0.5123303316018627,-0.4243831459425758,-0.3383375325067782,-0.2525475296271174,-0.1656758036759033,-0.07769561987904058,0.009664280650618778,0.09439350741929442,0.1755790936582415,0.25327353406565156,0.32791944935415474,0.40030897363355367,0.4717674273003255,0.543903708186419,0.6178851203649959,0.6937575576388293,0.7704794746565911,0.8468222615946945,0.9225331750945536,0.9986024725937585,1.0758399027350622,1.1523121275962331,1.2217612081005669,1.2791013647407712,1.3386684952163288,1.447274307430316,1.6527232809826047,1.9314424350108217,2.145226151993254,2.087630292718495,1.6081299782552179,0.7337656660933268,-0.3086262339360233,-1.2021940687766524,-1.711835206315547,-1.7982479285884794,-1.6024572703895705,-1.3293226082468976,-1.1226214043361857,-1.0130321263624709,-0.956347824270953,-0.9051381515736416,-0.8433883804456868,-0.7764815966825235,-0.7128045700730673,-0.6558395337537513,-0.6041029591570944,-0.5544190458512319,-0.5049026797140911,-0.455634208626721,-0.40803614419358064,-0.36415619384066145,-0.32588361985221903,-0.2936200083153632,-0.26530902485187535,-0.23776959311057594,-0.20908514016505508,-0.1793864935325959,-0.15016638824485062,-0.12305961394597802,-0.09886615916859252,-0.07757393379906702,-0.058827273102876027,-0.04209985174081461,-0.026744554442298396,-0.011996311201115287,0.0032631970121130977,0.020181319545317405,0.038823570601748056,0.057949419585045805,0.07608362727439698,0.09241479539559216,0.10716722272397232,0.12160836042403865,0.13703157294986162,0.1535380391128783,0.1701423999848336,0.18561799304653914,0.1989223898319099,0.20945016957660995,0.21775632782546284,0.22557769302511438,0.23436719489068517,0.24437094006654797,0.25508131238777,0.2657475715728746,0.2758228535571806,0.2862134533423651,0.30038050333116867,0.32202399564666334,0.34878953330284257,0.36769883809597315,0.35902345958636606,0.3080284999778427,0.2160012940920248,0.1026434657273336,-0.0019465278054710024,-0.07178393511605832,-0.09718151193962915,-0.08669551528353138,-0.05898553404802001,-0.031922927495186736,-0.015830340225571025,-0.012762511518174272,-0.019727358691581993,-0.031305822816525816,-0.0401747192270369,-0.039027838334996186,-0.024851276645568854,-0.0016760879921022473,0.0213705332874615,0.035519004328927295,0.036933305523480335,0.027474329683209134,0.012536898650017947,-0.0016534817227470376,-0.010118952236439546,-0.010510238137864166,-0.0034421406068237646,0.008185651281672403,0.02003855311527686,0.027608179189452183,0.0290424094380873,0.028653965327372743,0.03801970301066462,0.07218276231190365,0.14059660729440926,0.23625612270670018,0.33076996159715133,0.3818884775522137,0.3518275075237094,0.22557352283326626,0.017604367638689007,-0.23495698560211595,-0.48596856391638965,-0.6927750542519987,-0.8232894778091685,-0.858366063162892,-0.7937985304781124,-0.6439976576292242,0
-0.27894524524022785,-0.2700101816814174,-0.26460103948181046,-0.2631420721083411,-0.26394347683390773,-0.2641850389699821,-0.2615695004898799,-0.2551407003915316,-0.2453789734816375,-0.23430352611430988,-0.22488488359675618,-0.21931466667523575,-0.21744652814717286,-0.2167935834490139,-0.21398914872581046,-0.2062526921450795,-0.19184181247635784,-0.17019671743900014,-0.14210810031887422,-0.10923825275249777,-0.07337351888507941,-0.03617418636738924,0.001115554760294988,0.03827246384544024,0.0762148023147021,0.11673658321857375,0.16201169746777228,0.2133127414982447,0.2701961097589483,0.33134052409717646,0.3955736157050503,0.46234884389843994,0.5318075515814458,0.6039458141094171,0.6783115406181729,0.7552482326134689,0.8365508066610368,0.9242326949465852,1.018880381555217,1.1196324085525324,1.2256963144685438,1.3362868374488661,1.446982719270337,1.5461148532254916,1.6213762674103502,1.6872057413953552,1.8125829099417048,2.0879735235275954,2.515264521150981,2.9136634143782487,2.9549969922562274,2.343066719033224,1.029573452657135,-0.6940821407239803,-2.319154795512322,-3.388667205412096,-3.729510220984425,-3.493421884608357,-3.0035063039822534,-2.5394818772782672,-2.2127350700015733,-1.9900593463930019,-1.7992780153178327,-1.6021539783411856,-1.3960274172643437,-1.1884798365416749,-0.9838090090139746,-0.7826161030656426,-0.5844992495468746,-0.38954643825224095,-0.19890160415211455,-0.014341374424682723,0.16389704401153066,0.3403609762678371,0.5247028066437094,0.7229385350342232,0.9231130330670414,1.094084910353929,1.2096747377635664,1.2788556912775877,1.343063790435131,1.4298612693646517,1.5025941741804851,1.459412803547623,1.1983047709727084,0.7063282216476527,0.10100100184460727,-0.41224081239379634,-0.6376479579775322,-0.48656421806622163,-0.029778064902190454,0.5211838336210982,0.8997707291391996,0.8998803570750956,0.46761647135562123,-0.27260618342103293,-1.0712282860096225,-1.6692084770001334,-1.9204152480699905,-1.8461968789427243,-1.5904757952076998,-1.3152453265056845,-1.1126726813736036,-0.9877473223404689,-0.9018057627411324,-0.8209187102602213,-0.7323511516099888,-0.6372542174293994,-0.5404452403949074,-0.44611413224571655,-0.35771063770459954,-0.27798553396934655,-0.20826684638739285,-0.1480849560761605,-0.09563999861303399,-0.049050585515872824,-0.007567042419574843,0.02843795293723589,0.05834693174566574,0.08205613218506208,0.10019978157837595,0.11370505763881153,0.12363134612028231,0.13142828372810622,0.13852368430006753,0.14582298251639841,0.15383972574531748,0.16277239309958205,0.17204511067566508,0.18049585914638835,0.1879129806154773,0.19545014105695457,0.2041971121828908,0.21461783395880238,0.22710080568556948,0.24155121746521607,0.25621408647352495,0.26813260275624384,0.2754441747819513,0.27902036075367254,0.2824349901721841,0.2906686634687787,0.30792273010255566,0.3356075005144063,0.37162539487277896,0.4111300256343363,0.447972453032343,0.476257931491907,0.49193816467154555,0.49335174561180445,0.4802864740897986,0.45345414366811126,0.4148808120126127,0.36760265280103993,0.3147399301029968,0.25909840293640446,0.20316998908850586,0.1489492605821943,0.09771782693786062,0.05029868800236259,0.007378481022085159,-0.030856470790482496,0
-0.8629233343599257,-0.81131526952738,-0.7591737070398155,-0.7059802417249882,-0.6540729778497454,-0.6063539489329451,-0.5647618500757255,-0.5300617212665665,-0.5020019157111475,-0.47936584146009914,-0.460206113615919,-0.44237156406878647,-0.42425611446280087,-0.40522683141631655,-0.38563307203991415,-0.3666517375668232,-0.34974991976309133,-0.33610850065455977,-0.326390782016914,-0.31922453555072183,-0.30859335243912794,-0.285552817414614,-0.24580707451643846,-0.19559174238192983,-0.14962322126376715,-0.12172387166725505,-0.11317418448125358,-0.10746724993837332,-0.07742867647743487,-0.001148591700943391,0.12393656622830644,0.27897905346543517,0.43472953481237303,0.5667389264553946,0.6651560539687614,0.7348613691736529,0.7877641361861101,0.8349140375438914,0.8847120469404598,0.9447660933022856,1.0220652871601543,1.1214593949146043,1.2443303001298063,1.3864361453117144,1.5359853375371253,1.6795761923054724,1.8240994265790207,2.0164006301183015,2.3104506817148525,2.680055369578578,2.963369303311916,2.914857336754151,2.350359681378188,1.2923757194225878,0.0014676483101752902,-1.1481426018178067,-1.8689252384036803,-2.09601225426666,-1.9729222907401134,-1.7198431613478407,-1.493760923958193,-1.332500259891237,-1.1990883291231582,-1.0596487028878008,-0.9141672535355075,-0.7773291925802169,-0.6571828821802522,-0.5521609525833312,-0.45769509465014474,-0.37204707381337476,-0.2974307618006988,-0.2361950895498539,-0.1839008667429837,-0.12652113517803126,-0.05000665069365724,0.041615195378696845,0.11539887545242028,0.11914229982755632,0.010821146151166638,-0.2094875698696887,-0.4890540245886723,-0.7446979074837103,-0.9053238287187149,-0.9463952648645536,-0.8943822055339453,-0.8028804414476315,-0.7204131908242227,-0.6703558633201397,-0.6518029833318868,-0.6539048807749693,-0.6681002838674373,-0.6910500944260727,-0.7220347071332275,-0.7601840387035527,-0.8036056583453126,-0.8499357029689121,-0.8968175941129599,-0.9416331009313242,-0.9811218417053352,-1.0115233349397017,-1.029270918422001,-1.0313924550995002,-1.0152607827371443,-0.9791190323351863,-0.9238096167467078,-0.8537531331436332,-0.775798556689088,-0.696113048173787,-0.6165097347252239,-0.5333918581935887,-0.4411223401780008,-0.33736415448375107,-0.22701694613228973,-0.12151847057105764,-0.02748963389319814,0.07434638056329096,0.23954843027202471,0.5370996682500544,0.9993775969502611,1.580284103382454,2.1570441399393285,2.582241206069545,2.7567379910183347,2.677028242293118,2.4266983418731454,2.1215341531949745,1.848690878520179,1.6377518427992994,1.4727887364783285,1.3254629081578566,1.1798285513738458,1.0350358467497875,0.8957352111933878,0.7650468949079828,0.6435577382701336,0.5307255150820624,0.4259813370814715,0.3290158520759606,0.23966058105452803,0.15774460926871336,0.0830435508750525,0.015289635225569531,-0.04580650021515048,-0.10054340300278597,-0.1492252328091142,-0.1921611113036421,-0.22966402652767287,-0.26204885005981454,-0.2896300897328047,-0.3127198582451537,-0.33162617170946285,-0.3466515122350587,-0.358091578600634,-0.36623419065404933,-0.37135834041222515,-0.3737333880998857,-0.373618397334349,-0.3712615999824208,-0.3668999802301005,-0.36075896795315543,-0.35305223224241566,-0.3439815664460597,0
-0.09134433586382285,-0.17273344897433482,-0.2512428150167264,-0.3057629207017699,-0.32948583125242065,-0.33064731467539793,-0.32347207032862413,-0.3176358761845939,-0.31389022574926884,-0.3068286123770343,-0.2907346295663975,-0.26356380062958695,-0.22731626414640732,-0.1861835780511428,-0.1442241732373149,-0.10425177063333575,-0.06791764293894678,-0.03561797180879914,-0.006507914153090821,0.020652878892549353,0.046556589625734245,0.07100860793636735,0.09309783386411175,0.11166525999089197,0.12569943808313144,0.13479687229099327,0.14002005886241425,0.14399322317257476,0.14954189816720032,0.15832435829584368,0.17056354493313652,0.18561101961508972,0.20246116402300002,0.21981984683286881,0.2364386937033922,0.2520728908282559,0.2680840024093896,0.2864351593042867,0.30805259032765075,0.3327745308191614,0.3604144934142321,0.3909229026457987,0.42320971510275973,0.4540016791403987,0.47928925034595626,0.5005568124958156,0.532101070686946,0.5961378781110062,0.6987359466801992,0.8049342782482843,0.8416070873694115,0.736118653900309,0.4682878778755365,0.09700997076082854,-0.2626038430110668,-0.499050209665852,-0.5619872191652867,-0.4810319368313222,-0.3375293045862061,-0.21388583159627314,-0.15641875295203755,-0.17028778095292973,-0.23634426652910573,-0.32771059376377526,-0.4174528486732126,-0.48327458623808905,-0.5129370055857155,-0.5069010406394167,-0.4748040774416595,-0.42818472339709207,-0.3762013729509471,-0.3269981303391817,-0.28917143401368356,-0.26887012144030215,-0.26596129037520416,-0.2737538324034843,-0.28239123216731404,-0.2840584009581253,-0.2767204764227187,-0.2628737722161756,-0.2450646741492978,-0.22322799681198735,-0.19565886415108474,-0.16202335171506935,-0.12515860518834607,-0.0895583084247166,-0.05807498718494769,-0.030210081391477586,-0.0037104996781068406,0.022660558150298507,0.048291000269057055,0.07183188191103639,0.09255984024061048,0.11074253019970089,0.12689213277186573,0.14147147238043434,0.15567523118673401,0.17118737122593436,0.18830920933521295,0.2049768686037868,0.21738697570911444,0.22094971922491288,0.21182383229193466,0.18943145366193603,0.15794661644063296,0.12403172257249645,0.0921561611484343,0.06207802316826378,0.030661612874194423,-0.003559565789329304,-0.03708230577860368,-0.06270791807034437,-0.07459330240256767,-0.07248946240506039,-0.06130544534197963,-0.04739875425630201,-0.03529836418512177,-0.026135006152410056,-0.018115009524457944,-0.009153069597337186,0.0009384378453841512,0.010815995406769797,0.018755948052215622,0.023476140876297256,0.025063345934649386,0.02505375687751909,0.025446035891125898,0.027795120766188116,0.0326561913224285,0.03947611441663894,0.047169338868622304,0.054626992328310475,0.06086699512642326,0.06550279466453275,0.06910142909141843,0.07263339602250891,0.07672018325618182,0.08144965149862647,0.08642345778808239,0.09081550074584058,0.09351099990345212,0.09298909932010029,0.08739784357670859,0.07573703523630532,0.05878955649540117,0.03832722449401158,0.016240366105965312,-0.005309988040962086,-0.02403911980111735,-0.03838226123497726,-0.04831747202274093,-0.05529129814865469,-0.06086828956274892,-0.0658248786015759,-0.07069544883163596,-0.07584340651430871,-0.08061035206211634,-0.0834913825929868,-0.083237389520682,-0.07959163018659443,-0.07339293008077663,-0.06586308958405504,0
-0.052819148070520926,-0.050894890421428786,-0.048023537406478294,-0.04580041052468617,-0.04525207320083504,-0.04668937235686092,-0.04964193766386836,-0.052927126293048785,-0.055554194571642075,-0.0573278060655571,-0.058551182917400454,-0.059990701437194656,-0.06310894630808896,-0.06946958994802072,-0.07954336614020364,-0.09217765671834424,-0.1049974837690477,-0.11560112236124077,-0.12300537179363362,-0.1275084594827895,-0.1291507558398009,-0.12750937757093153,-0.12289715012078217,-0.11663826088348114,-0.1105029443354638,-0.1061920877094004,-0.10442349416279408,-0.10426243910106754,-0.10316373334092004,-0.09705912165218547,-0.08146733908319838,-0.05393381065289973,-0.01520050118264893,0.031823852177655994,0.08338534521459916,0.135842360675974,0.18692540074680353,0.2363719600742566,0.28494346338444115,0.3334307765161048,0.3825511200620316,0.43250297729313286,0.4819673339779359,0.527329106250024,0.5636398672056637,0.5896647521055526,0.6153017723062288,0.6616011097211929,0.744637077992576,0.850283375964284,0.9217589345520978,0.8789051260643448,0.6652856330860295,0.29304633109209793,-0.14893062981884908,-0.5349253372209184,-0.7668446051519797,-0.8199160330600221,-0.7410658068005194,-0.6081190601542531,-0.4833378810652502,-0.39102408597654786,-0.32475684238347435,-0.2661185880344147,-0.19677979631429873,-0.10662634640866464,-0.004505559322784684,0.07730864488351627,0.09599974210021475,0.025038494781868557,-0.12269884541346149,-0.29468734811871655,-0.42541550505663994,-0.4725371088870922,-0.4364283077493928,-0.34962426473094355,-0.2477295479778065,-0.15007508910578898,-0.0655676920443212,-0.009655370256696473,-0.007079249452641337,-0.07336984964980958,-0.1944578642096963,-0.3270024945885163,-0.42104998937951255,-0.4479044273703511,-0.41348170742010865,-0.3487273551924303,-0.28626672683384563,-0.24170386250539516,-0.21132836917862433,-0.18405190581305458,-0.15423402086721072,-0.12369715788775362,-0.0958934906780869,-0.071952564545751,-0.05077747503745446,-0.030445670841637226,-0.009392037679964008,0.013536606938036391,0.03933289252768116,0.06787394656104428,0.09747307791382746,0.12639955089918592,0.15405004740297146,0.18044560107989704,0.205856748740245,0.23114196799469017,0.2576050006690467,0.2862783477109433,0.3174709305385228,0.35103566842264344,0.3866306271202781,0.4234870190554198,0.46059198533446594,0.4968556851034367,0.5307184119769345,0.5614769503471508,0.5933803122210227,0.6372838010795648,0.7021338554736811,0.7794455762509885,0.8378521068845936,0.8419693854062813,0.7852229382824626,0.699283633975861,0.6203412940356354,0.544411573607421,0.41776531912077675,0.17654243437608383,-0.19125583791210954,-0.6134354583834007,-0.9645524410856543,-1.1410206862779695,-1.124332823276145,-0.9841631921057703,-0.8217853388547911,-0.703882195491445,-0.6374260190254137,-0.5936068504755002,-0.5468022174922651,-0.4912474603412533,-0.43296604160149554,-0.3779157912690805,-0.3278289406249623,-0.2816992399819747,-0.23835215899604406,-0.19734554757581535,-0.15816092387975336,-0.11991232061692814,-0.0822689803298196,-0.04593006130688278,-0.012104314098211194,0.018088437918076863,0.043646098605146136,0.06353501824003788,0.07729004703837924,0.0859679271534971,0.09220974925083077,0.09921414700601894,0.1090715332886891,0.12122225423248507,0
-0.09198132990855208,-0.09505985481356526,-0.10122752110800862,-0.10922436313409666,-0.1174578065484767,-0.1246373361411681,-0.12954934839661003,-0.13128306858567734,-0.13003996875117013,-0.12746244796294867,-0.12563555948747468,-0.12559285844775953,-0.1270106418600812,-0.12858419312432234,-0.12853141149451416,-0.12566159848740016,-0.11952308823161047,-0.10975663446831838,-0.0965166763264661,-0.08087071376410498,-0.06427516753932068,-0.047818477116376906,-0.031530935094966885,-0.01460719737455766,0.0039473574737099015,0.025361611240342828,0.05078841229287492,0.08063820365573368,0.11460858592943093,0.15183269724674842,0.1911112702261689,0.2315221686588867,0.27277557049845796,0.31552567718105035,0.36132450211668815,0.4112109211983016,0.46455179487582654,0.5197845969748204,0.5756865458799051,0.6322098769922827,0.6908468525142183,0.7535137078352806,0.8195542338696804,0.8829150766375549,0.9356679860276977,0.9852841621611431,1.0729634928672622,1.2523143849474712,1.519266138209508,1.757309024694249,1.7676956664125174,1.3840383471983106,0.5992474774607804,-0.39114510980055084,-1.2767226931112243,-1.8006522540349603,-1.892050246111081,-1.6735474521889424,-1.3529135095537366,-1.0873125658620908,-0.915927515146886,-0.7957208348062828,-0.6844834089324244,-0.5840604467429334,-0.522577880553474,-0.5176339936879507,-0.5573209792041015,-0.6070929503737621,-0.6326975825191096,-0.6211426983352543,-0.5844229485404054,-0.5456622866055176,-0.5204882230648078,-0.5070507636926314,-0.49042377439023477,-0.45627605581480174,-0.40148365178341494,-0.3339455752431951,-0.26495347413922843,-0.20239287981918497,-0.1489048845727039,-0.10345508468919498,-0.06399491652237524,-0.029191382109741898,0.0020916187657449015,0.03143410638648306,0.060225709893289125,0.08916926994919391,0.11795188205906654,0.1450521949129957,0.16870232928420234,0.18814407312044468,0.20387577341481566,0.21711148609432085,0.2290036794783085,0.2402699674402713,0.2514925081666017,0.26327058433325345,0.27579459482273416,0.2885550227330579,0.30038527578721086,0.30978560755397655,0.3157303631389848,0.318113623994616,0.31762327297660303,0.3165089015934465,0.3203408339664256,0.33703063714714643,0.3694812855687693,0.4062815265738535,0.4209482357653034,0.38491908107245887,0.28687696957629977,0.14305836343701192,-0.01020468234643419,-0.13619289164387433,-0.21563665421761408,-0.25086115336883474,-0.2560686904558749,-0.24411617426116183,-0.22067064709687012,-0.18833327528258453,-0.153133755858731,-0.12413754450722027,-0.10685684633017418,-0.0994016151571516,-0.09537833242112131,-0.08931882930704182,-0.07993668173124868,-0.06951375874855624,-0.06079213772512367,-0.054750684054373305,-0.05082988074770583,-0.04820789001281501,-0.04604570931088661,-0.04277329952379513,-0.036661647110281734,-0.027599595281797416,-0.017310485580933545,-0.007931864832621323,-0.001290721059152256,0.0013417201241470132,0.0002996948613194321,-0.001730701135564585,-0.0006757816338582891,0.006461655793437883,0.018786441525805525,0.030172586734435042,0.03146651417342235,0.01582334081590338,-0.016377669329024167,-0.05638452574230944,-0.09107750719701203,-0.11034532844495798,-0.112296990173001,-0.10232009526144478,-0.08813312241516207,-0.07511971184373448,-0.0645497688466478,-0.05532777942023308,-0.04659122196246735,-0.038404137048300195,0
-0.1334854266441477,-0.1411889080608444,-0.14878636220471972,-0.15601749017971064,-0.16228630132343919,-0.16659205934725363,-0.16843902064802138,-0.16866302602099423,-0.16886177972398508,-0.17005596494015904,-0.17235160489252366,-0.1756276400053037,-0.1795528766290219,-0.1829063450057053,-0.18384651991698264,-0.18110204390477033,-0.17447795305565664,-0.16444402950170298,-0.151875026120784,-0.1377023829094143,-0.12216585697494654,-0.10475387779247472,-0.0847397278519606,-0.061248900688577246,-0.03321974089153556,4.154957028534086e-06,0.03815845997146819,0.08040233369499292,0.12578975810354365,0.1734374943225258,0.22299435573532303,0.27502659410273317,0.33062785387306737,0.39095462820433413,0.4570715302597406,0.529476202021842,0.607684077809066,0.6905879931322393,0.7769589271289045,0.8657795993816031,0.956966928736856,1.0516510837381674,1.1505605955524933,1.2506865553122817,1.3435272362840474,1.4236930928779543,1.5123190876512385,1.6688544448420348,1.9460252434293597,2.3014709816648162,2.554575876020761,2.4534243663280515,1.8255736866388952,0.7146494898420822,-0.6029935304050189,-1.750075937974318,-2.445729620331697,-2.6345760202935473,-2.467610782540578,-2.1690336110352773,-1.898098863434855,-1.6974391837816185,-1.537410581038559,-1.3860365812176139,-1.2339542069169884,-1.0790116816609545,-0.9155553909529839,-0.7431871362804827,-0.57903135590954,-0.45688995081165007,-0.40946786102584215,-0.44487691423274245,-0.534918081192248,-0.6253817147103524,-0.6638419592577852,-0.6269143613032354,-0.5280466634103964,-0.4026476244186074,-0.2844761350250301,-0.18961578152814712,-0.11579805038076432,-0.05322808226401357,0.005024082116342032,0.06055186357946285,0.11255770353322833,0.1618585835654327,0.2134063224315345,0.2732437604363839,0.33938966278350374,0.3949565398212348,0.4124846282677761,0.3700746292435,0.2691794617083807,0.13932662580830946,0.02426342460647582,-0.04115247207468001,-0.04771294786630205,-0.012421756856184296,0.03545393694001249,0.07251910799446706,0.09154928479795954,0.09825418114633808,0.10085149876695705,0.10381126245742224,0.10855372059909393,0.11545325883570202,0.12361552971945527,0.1308081098381365,0.135305656092115,0.13679196658240506,0.13524216044907716,0.1307979951611712,0.12496181267565196,0.12006308576348074,0.11726638546340377,0.11626100603975476,0.11616541987369378,0.11567675765644479,0.11336831914732692,0.10853771288620026,0.10153640534441657,0.09343133848384237,0.08538375243605215,0.07827479859392274,0.07265602382088171,0.06867772364553319,0.06622678374571005,0.06490039274733034,0.0635542612787766,0.06066100488094256,0.05547403638039638,0.04866800531699362,0.04195890368725361,0.03704622492929678,0.03478833355536206,0.034757700865527666,0.035270100383589825,0.03457528161113847,0.032088871584541524,0.02808813983608454,0.022684874929384157,0.015817735216863655,0.008069103888575142,0.0009316160279946376,-0.003751066260091104,-0.004997684380437047,-0.0037069590744294896,-0.0019129477668098464,-0.0011930024910275332,-0.002272755382402014,-0.005188432356620885,-0.009130655629262519,-0.012633523278507242,-0.014253023212113813,-0.013389214310476356,-0.010702704114902943,-0.007650078580631357,-0.005617609530642307,-0.005283754469833058,-0.006694876135063059,-0.009875710011040678,-0.014692388108628988,0
-0.09820195120491057,-0.10549739908651262,-0.11026367722356915,-0.1123331108886104,-0.11252549904001545,-0.11194250770273598,-0.11159054355265245,-0.11236288685041805,-0.1146330484501936,-0.11786566706240827,-0.12098768661625765,-0.1228435381846806,-0.12234794315119522,-0.11895222644761298,-0.11303329316746155,-0.10550642773974944,-0.09736015152172293,-0.0895018296553808,-0.08229572232278833,-0.07518349870153863,-0.06708129538150745,-0.056836877099266284,-0.04333220513356149,-0.025861156858500566,-0.004517783505229298,0.01986015526963135,0.045931693252311834,0.07254204933790824,0.09941680115815309,0.12708768033767556,0.1567370202551693,0.18988116467717936,0.22740072586235147,0.26915497152545004,0.31476465807261383,0.36391390534894935,0.4154596164010724,0.46743963414362016,0.5188493996555065,0.5707742623389599,0.6256238775343711,0.6854564053515888,0.749663909805259,0.8130670513699283,0.8684398183749411,0.9174698652906439,0.9841589403637657,1.1081652747312707,1.3036515275648568,1.5110221642405692,1.5934858532718397,1.402125863503906,0.8766409483396485,0.1096985981926965,-0.6818820940768597,-1.2687457738204173,-1.5284425181768684,-1.4923086280015738,-1.2975602231987193,-1.0915585755913466,-0.9577463196238784,-0.9030431076449658,-0.8947735502807874,-0.899967779969004,-0.8971608358966396,-0.8729542019909332,-0.8219155485674141,-0.7491764766782285,-0.6687327035036735,-0.5961099175026112,-0.540015616326617,-0.4992478919413123,-0.46620860715377416,-0.43246360438142867,-0.3924601051376685,-0.3450228877134044,-0.2930028737027228,-0.24130951505451426,-0.1942693575200499,-0.15362613889358287,-0.11820562865796527,-0.08559518257083523,-0.05412367723451783,-0.023091199512240118,0.007456978824684823,0.03621573481632148,0.06133982908783853,0.08198016445891046,0.09812289316868208,0.11012712895971463,0.11932909382791504,0.1276590171315889,0.13629492151060277,0.14555738943464497,0.1554930342427362,0.1656911375703339,0.17526095110918669,0.1834420482730379,0.18983691442519077,0.1944982678701352,0.1981641165458548,0.20198736356615662,0.20707249836864142,0.2141568358672785,0.22315636968842734,0.23306176311137303,0.2426063775141365,0.2512330201815342,0.259441244524542,0.26812961996963025,0.27797325081725077,0.28965774498724317,0.3041205311287083,0.3224198588188536,0.3458668807694767,0.3749633791612273,0.40661445784252176,0.4334694849805696,0.44767849067069104,0.4461831286331871,0.4316420493864071,0.40622663257051217,0.36444793771203365,0.2936582998160595,0.1836047463490449,0.03877672089548948,-0.11635639917039893,-0.2467153039713353,-0.32604751392649134,-0.3511413097621799,-0.3406087703834136,-0.3210316196925328,-0.3109507223088544,-0.31306374907957984,-0.31827526948028956,-0.31613308116675476,-0.3022217755906471,-0.2783879269695574,-0.24904561126743302,-0.2179642498851804,-0.18760247097210322,-0.16014926870724,-0.13759763245418333,-0.12077911489277024,-0.10880928932463325,-0.09876325969723196,-0.08647669063195398,-0.06944109571359627,-0.0493178162449807,-0.0307708041088511,-0.017235600341278808,-0.007872532767267584,0.0014117050671670073,0.014186993030859824,0.03061589630540485,0.047411869570165605,0.05989917593653768,0.06471142243946795,0.06121528862468081,0.05107880074767148,0.03758380362492015,0.024750103709438396,0
-0.05713776252079867,-0.06191698019358778,-0.06457226590653578,-0.0647118230027819,-0.06262203907586608,-0.05941439000746621,-0.057050213088395474,-0.05730970636896345,-0.060104118212812925,-0.06363161050279771,-0.06628074700536798,-0.06743551398044526,-0.06683618458752576,-0.06420374768364584,-0.05940422794934592,-0.052834418137478946,-0.04572488082973709,-0.0397677776345835,-0.03587875521884114,-0.033156583582525614,-0.029672776492908396,-0.024056930295000473,-0.015591145255276223,-0.00389909737456867,0.01028506519313791,0.025167314437536375,0.0395223538276037,0.053515312641450624,0.06785180489106732,0.08307372970061631,0.09972626434870528,0.11834677463192697,0.13945602282421818,0.16373279976258923,0.1913200871483199,0.22097202007696673,0.25083004969673384,0.27996018994296085,0.30836929909673,0.33650315314953033,0.3657671744606252,0.39810311120125685,0.4341688884715993,0.4719070263540969,0.5063996022979392,0.5344805868268695,0.5658438218768448,0.627161155648474,0.7402179300767209,0.8827362467061173,0.9709676885612759,0.893662957160928,0.5843428777429848,0.08131808921487259,-0.4745698760661445,-0.9113760740062762,-1.119662535459482,-1.103295383908145,-0.9566712386198002,-0.7933523987490332,-0.6808144833015213,-0.6219205172602208,-0.5847069362030408,-0.5435777298158938,-0.4937464206274833,-0.4411272259481754,-0.3914353047052131,-0.3470066493985626,-0.3075561187649335,-0.27170986582166834,-0.2381172566566578,-0.2056999392539835,-0.17352848337191856,-0.1412789300814266,-0.10975575971431495,-0.08036192276502782,-0.054275965910436486,-0.03244107636535003,-0.015341760393959236,-0.002176690221579042,0.008978360366842256,0.019989483864685187,0.03179239827435042,0.04438402943782653,0.05725962556279862,0.06940132424376666,0.07929609548310153,0.08577936286256974,0.0888287198042624,0.08941611188640718,0.0887518228932657,0.08782450688377566,0.08739217717392428,0.08791180562060164,0.0893541947385347,0.09097198046649431,0.09144491588070544,0.08956698044297032,0.0849434060961477,0.07847435348334256,0.07178652362579044,0.06586468477625468,0.06089851944164936,0.056964359381837054,0.05398428709351743,0.051466942069396504,0.04852628293525421,0.044013456784449095,0.037132598533345704,0.028276085144447932,0.01895940408381979,0.01083376094290921,0.0049882404254111045,0.0016670093916067424,-3.8372842793541395e-05,-0.0020182759574404463,-0.006146506085634345,-0.012952814534886205,-0.021393070686929035,-0.030079171284399995,-0.03819927526408832,-0.04529954007818958,-0.0509922928795276,-0.05513091967348667,-0.05781872946570809,-0.05943788966835087,-0.06095413935175363,-0.06343991688204034,-0.06722592435088451,-0.07185558378322278,-0.0762686042413574,-0.0791886177087216,-0.07995609380234611,-0.07885816181728725,-0.07657599160501598,-0.07333831873620218,-0.06907563909885965,-0.06443879163389582,-0.06049258586032803,-0.05727820337084849,-0.05359840855719103,-0.04810591771015253,-0.039774140063503924,-0.027836455295921353,-0.012389192488578865,0.00539186738075105,0.0239312165237868,0.04205641971071764,0.059682568181204695,0.0775854479625933,0.09674834536493157,0.11834882418185787,0.14331352986980664,0.17156701091491888,0.20238786531975927,0.2350979927683348,0.2689687747431897,0.3030813634577826,0.33699830430408323,0.3714289648174568,0.4077569053488773,0.44671826550241883,0
-0.02568549779573067,-0.027208876805542175,-0.031048858372405248,-0.0370929901711288,-0.04391755169131974,-0.04959145910544409,-0.05290874347166583,-0.053765692041084154,-0.05271201689885108,-0.05086285859911212,-0.04982908269060915,-0.050858404473905244,-0.05400528402283204,-0.058209160605126105,-0.0620563785089342,-0.06454246285894655,-0.06522804620972816,-0.06370491585751564,-0.05968135547144035,-0.05422317349781402,-0.04959277250440667,-0.047038482569191555,-0.04585653095687937,-0.04470037969677485,-0.04267204710924315,-0.03907138728878315,-0.03302640011878594,-0.02402855280166636,-0.012603243088415613,-9.126355183498858e-05,0.012132823104926685,0.023372576050091586,0.0337553544914566,0.04385507058878603,0.054595393127628455,0.06715068303835331,0.08248493509007651,0.10119353865836782,0.12327434303318477,0.14763429079775425,0.17244790838957763,0.19626373787924295,0.21856414861541448,0.2395066803383785,0.25948065279513566,0.2797214953426532,0.3051416581058397,0.3454677300341526,0.4074971485366257,0.4811499428993309,0.5336180907108266,0.5218624624893541,0.4184028301915862,0.23336090151034716,0.015982042267994497,-0.16776561214436145,-0.26812965971096747,-0.27400037332911553,-0.2107424561720026,-0.11827628349211046,-0.029193387543776164,0.03828995404023051,0.07435170367791143,0.07072447305005417,0.02280154680477646,-0.06195692190088511,-0.16127689566688963,-0.2466000237276864,-0.29618620768287174,-0.3036584236717842,-0.2779654422920924,-0.23586404640150618,-0.1924630092085412,-0.1563076565225816,-0.12993130962923669,-0.11125457503606614,-0.09266923756495557,-0.06049705393599398,-0.00025260475738700383,0.09259906873413343,0.20427235637691604,0.303643530027582,0.3533822940916282,0.3264000016560043,0.21839095624065744,0.04844357494730015,-0.1513837186229369,-0.34822382258145096,-0.5147902510673398,-0.6304943401130708,-0.6816634117201926,-0.6647694626752151,-0.5917605291294963,-0.49046376211925635,-0.39636462602815803,-0.33898142052567987,-0.3276216569552618,-0.3438540244342601,-0.349145378760087,-0.30673858627996003,-0.20387635930959416,-0.05964496679387501,0.08512440933682115,0.18970695025603734,0.235170712663413,0.23192344760048567,0.20809048697893734,0.18914294558746192,0.1846855237311929,0.18937226676061347,0.1927037253205172,0.18786756012496836,0.1744606119421797,0.15645365930422256,0.1386351458391056,0.12427766432154373,0.11499221111990425,0.11117243946997686,0.11200258668848131,0.11552547824719947,0.11916285847651405,0.12092420241504036,0.12022860430008767,0.11722273446931777,0.11244728199292083,0.1075759739028197,0.10447769926530613,0.10297626992727986,0.1014460079765565,0.09989420134151718,0.10060414133890049,0.10560321260848819,0.11468939323122945,0.12545168992437897,0.1345548318244778,0.13976070383790407,0.14131057677650943,0.1411984870336816,0.1407219278069335,0.1388215915413926,0.13295027521075192,0.1211333405176241,0.10347292317754672,0.0825749960131356,0.06269045956718032,0.04718949486312826,0.03519856841597294,0.021213054083128298,-0.00044588692212576414,-0.03050475278671553,-0.06359503877225348,-0.09176322557977123,-0.1099645014101095,-0.11881459008676505,-0.12226059698835054,-0.12344149866988419,-0.12260136344513411,-0.11784375235155303,-0.10803379659713726,-0.0951935009022003,-0.08406651209519309,-0.07962746775923035,0
-0.08174900364710215,-0.06949971383164925,-0.05894929685150999,-0.0511087140580779,-0.046476567862483706,-0.04456732325313241,-0.04384730886933051,-0.04240669815527179,-0.039060727816773874,-0.033672932386296636,-0.026715277929373768,-0.019255454799400787,-0.013031437101571706,-0.009677010823705541,-0.009560591850604538,-0.011322142094821977,-0.012974040558244387,-0.013440448991833113,-0.012409503290268466,-0.00937027934237381,-0.003909112685966398,0.0033357987943122506,0.01058915193566452,0.015953579728074513,0.018854843947750957,0.02043659281987314,0.022467758456637385,0.02624183956470429,0.03241181539039737,0.041387696995267766,0.05331825958288815,0.06756738476440019,0.08261803889274887,0.09661197711481762,0.10844846772193197,0.11877152200445877,0.1295295103032902,0.14258552577497655,0.15880695632255123,0.17812336653112412,0.2000427648638223,0.22360857710346774,0.24712855546933446,0.2685261398197367,0.28612229467360156,0.30031209547292553,0.3164243073623402,0.3451705757352265,0.395104821483664,0.4588608967231622,0.5057926276947892,0.4935544160601621,0.3966184559891756,0.23184861031462195,0.057906596219734485,-0.05675724425000887,-0.0775250704815557,-0.02770008278830899,0.02518760107932179,0.011237731877464172,-0.10168514657474055,-0.2964951831301243,-0.526445353182315,-0.7425245493361556,-0.9068152578568345,-0.9925923571207746,-0.9834890840885169,-0.878082257262395,-0.6964424798807295,-0.4794037048160364,-0.2754721931182929,-0.12156388794286821,-0.02983219312527012,0.011647757131620223,0.026394906663333786,0.03487995676079149,0.04684134610948339,0.06219122159656659,0.07647084904246197,0.08582444595318539,0.08875925955937192,0.08622368237031992,0.08154659571419598,0.07883237316526132,0.07978118202708573,0.08200396584205238,0.08114071890406625,0.07488587157714197,0.06453041571244073,0.05316460111425715,0.04366581317586277,0.03782336120255285,0.03595495004670691,0.0371242790681295,0.039792358289478094,0.042281857099956056,0.04314900082893139,0.0418938234529591,0.0396458373622091,0.038920165597757315,0.042436409043919425,0.05179329685278535,0.06660446466409219,0.08450552751268783,0.10220217135490779,0.11676186799854804,0.12660356658360497,0.13240492188156397,0.13646018698704152,0.14008860612285257,0.1423518902645702,0.14140259577253125,0.13642053679018276,0.12843565676357974,0.11943409065660489,0.1105803805741499,0.10134070997103813,0.09008448591122648,0.0753177990673277,0.05679369275944956,0.0361712781785041,0.01685354421823514,0.002418790090673934,-0.005683231068475975,-0.0089135010852067,-0.010430822688342247,-0.013450842447051848,-0.019916725201925205,-0.029766158486132767,-0.04151276470830362,-0.05363007190100029,-0.06511877332705752,-0.07516660987631496,-0.08299930094041177,-0.08796055443517148,-0.08952771296970484,-0.08736247477527682,-0.08123040362407702,-0.0709831264421541,-0.05655205233214343,-0.03774807669340266,-0.014793347427064125,0.010645550391237988,0.03542866438621968,0.05560033846497982,0.06704995837038615,0.06687940907926757,0.055116014676386604,0.03499932718616686,0.011434307822381532,-0.011446900026380262,-0.03238094552515942,-0.05256736160724539,-0.07276913354101155,-0.09129760354089037,-0.10442132229703632,-0.10846732348185689,-0.1023233280142735,-0.08797521529254583,-0.06879862145669527,-0.04837549612313761,-0.030680545024915788,0
-0.05196726124104261,-0.05169376323802877,-0.05096652579775018,-0.05046206621499802,-0.05082664188090999,-0.05264008544295811,-0.055896895352398876,-0.060116806917916314,-0.06490110356461848,-0.0694802854854242,-0.07237964761180404,-0.07230033462281703,-0.06902609453423307,-0.06335429895944306,-0.056415232130549116,-0.04928606301991233,-0.042898231992959036,-0.03746780134382885,-0.03199594062604201,-0.025000554114332982,-0.015683185928228947,-0.004014386028778762,0.009612610203361934,0.02427736785575223,0.03885079862784326,0.05245810582220916,0.06447354977773455,0.07509754047741285,0.0859472767326481,0.09918777318343695,0.11612044820542973,0.1368738681387139,0.16094651203626034,0.18726981759950712,0.21407211615795346,0.2394849269165908,0.2625965032414607,0.2842878139391124,0.30683419262066886,0.33221674994918005,0.36130560894953234,0.39450656666154627,0.4315174081769102,0.46963337875261185,0.5034163207627099,0.5289392318323788,0.5530473000359338,0.5991283269435937,0.693315708025592,0.8303078959525931,0.9472784582901477,0.938963210728217,0.7166854411454872,0.27520442907895093,-0.28352562842143153,-0.7945274296819211,-1.116494233098361,-1.2025677561903068,-1.1092435713934274,-0.9446681436040281,-0.7991572774323749,-0.7058609512564442,-0.6500836824924713,-0.6051481673176181,-0.5573616824618175,-0.5067764813014503,-0.4576277037083207,-0.41228349819707805,-0.37026477015910425,-0.3295818471265645,-0.2887119826307531,-0.24777830054638175,-0.2081128777809463,-0.17102921945588062,-0.13754081120558626,-0.10863730440117472,-0.08453503413337636,-0.06408322325775075,-0.04558526070380438,-0.02784944870206034,-0.010412301553233652,0.006994711113802621,0.0244767417917562,0.04116583179303407,0.055523517093479566,0.06648395912901099,0.07377773049652903,0.07799918415036589,0.0804458070629532,0.08259330401694116,0.08585309370842564,0.09110893182514541,0.09789124116833402,0.10435920821603417,0.10854392445563085,0.10957554238542086,0.10784843558853262,0.10451188941659814,0.10085976440544384,0.09806000566571829,0.09702049838601094,0.09771974368581943,0.0989047612217122,0.09916737155625274,0.09778644267910552,0.09425224937953872,0.08833624926585924,0.08105522703949924,0.07432347828064274,0.06959818344044193,0.06753419206663226,0.06819092005237605,0.07101216179801233,0.07506557601094335,0.07920963849971388,0.08205232917163996,0.08267364396379243,0.08158131519854947,0.0802920970126832,0.0802047778182146,0.08208860837780799,0.08595543889264835,0.09118314075981165,0.09670917184210207,0.10106477941231892,0.10294611239032175,0.10204337285196047,0.0987471576359867,0.0930351011520946,0.08415659262714206,0.07147297572717624,0.055154148114874485,0.035929396767525296,0.01488932222438855,-0.006153246733404168,-0.02501423810144538,-0.040318316585879733,-0.05174089229252883,-0.05933541680442168,-0.0633228706136077,-0.06402956355179257,-0.06172673926243613,-0.05710209199072339,-0.05193949929781344,-0.048636029403899675,-0.048743957121240473,-0.0523659787634822,-0.05859861236453305,-0.0658669676847419,-0.07230318527655924,-0.07636724023891907,-0.07708354180957672,-0.07418853935465765,-0.06866387075207149,-0.06247263569660918,-0.05719827601040979,-0.05348131948008053,-0.051311974186425656,-0.049769458087933954,-0.047059648074177875,-0.041863899401214086,-0.034380465904029094,0
-0.11017216308669844,-0.11483531530135073,-0.12019916679552067,-0.12647101454595472,-0.13405889824786693,-0.14329025274039234,-0.1535688469252886,-0.16279469991261433,-0.1686074842472864,-0.17033512347399243,-0.16910955476941186,-0.1664906127573439,-0.16370799651527754,-0.16166255507592903,-0.16046423303527116,-0.15889002611299158,-0.15505463545372394,-0.1478443875042604,-0.13734229486669577,-0.12388018189959088,-0.10750018634804198,-0.08870730152558831,-0.06883228257523454,-0.04902447312128751,-0.029151833438313412,-0.007781907833623401,0.016732899178028185,0.04518576134215919,0.07771208579393167,0.11440585113568615,0.15509330134091293,0.19907292257086515,0.24559075719342777,0.29429107908693214,0.34498017892047445,0.3976936820988666,0.45340543288786783,0.5135175522109666,0.5786498037664151,0.6488489940948577,0.7243874385892652,0.8055249620392421,0.8908938380512333,0.9752118355478699,1.0489638254407827,1.1070026005532083,1.170312150092103,1.2972088431480069,1.5409464840581542,1.8642353551529869,2.095203636535929,1.9932723105581691,1.4013664678497721,0.3802990086616531,-0.7840756569019685,-1.7236585444849732,-2.1882864486992255,-2.1646118900739393,-1.8401195351938058,-1.457892555273886,-1.1740694845551718,-1.0058116682462375,-0.8839723420780806,-0.7455940426468242,-0.5836024765928175,-0.4365193293632862,-0.3522089291941778,-0.3526082636961692,-0.4154586794433218,-0.4852758423669377,-0.5082955398532331,-0.4664878105725828,-0.3853897481259979,-0.3104125109001552,-0.2710156823098817,-0.2609571790307784,-0.24847521679366102,-0.20539479122327145,-0.12667660858374769,-0.02313776323143492,0.0961207980998312,0.22566007560345128,0.3496495528701207,0.4315395625483848,0.4244676164333293,0.30107225621647343,0.07990945861548376,-0.17541612318196081,-0.3861246924124453,-0.4973974653965842,-0.501823874848505,-0.43392872764736734,-0.3429968816414574,-0.26503620082206153,-0.21146200404171378,-0.17613250475186443,-0.14867995324338046,-0.12231693652300919,-0.09423296486432824,-0.063842441754368,-0.032445298623664534,-0.0029421473319783814,0.021923438249214958,0.04119620022600155,0.05550210459820999,0.06602086434214294,0.0740024765120522,0.0806276389766806,0.08701701187330017,0.09414206744019771,0.10208831365252355,0.10964215208269798,0.11526189373483792,0.11798124979794533,0.11742523120158653,0.1142396634562265,0.11022996714096543,0.10714099318623022,0.10572103044153718,0.10596258658202357,0.10766014340346158,0.11029622025992049,0.11237382714034636,0.11199506120234537,0.10862356163724884,0.1037151906514222,0.09948650206101661,0.09697052388062986,0.0955927714173021,0.09518566897033497,0.09762544667462748,0.10604697726297317,0.12306029606426366,0.14891281471123938,0.1799213262594698,0.20858801137679844,0.22634024923109886,0.2280775568141041,0.21536121382423803,0.19542315532587515,0.17655354335733903,0.16277143961394386,0.1517914398176452,0.13802935125298357,0.11740427584759039,0.09006321879306783,0.060114305232068725,0.03292017198550836,0.011782265733522916,-0.0035095231081382697,-0.015564673636016428,-0.026698588547297855,-0.03703317413155738,-0.04535306282973625,-0.05106991689277238,-0.05508358031688856,-0.0596181913045882,-0.06680874507125174,-0.07656598795768185,-0.08626903686578152,-0.09286211668659156,-0.09477626288235658,0
-0.06180307509128948,-0.06466741559865861,-0.06694627008505147,-0.07013322051493719,-0.07528747266648632,-0.08226851350416449,-0.0897008697834329,-0.09589453543199652,-0.09985734083970592,-0.10143975872288202,-0.10102373032782393,-0.09929746599042671,-0.09717057091351183,-0.09571539972330831,-0.09560980175726383,-0.0963713339341431,-0.09657905416960506,-0.09502538774209529,-0.0911774510611959,-0.08479751544663437,-0.07595280106792877,-0.06517157802557108,-0.0533316605961092,-0.041430055361253736,-0.029925835122785294,-0.018158109998213892,-0.0046488338565378335,0.012096078799168908,0.03289819865233189,0.05777930971483487,0.08629223927531333,0.11747037022479069,0.14978473478700827,0.18184138272096387,0.2130816917061855,0.24402112424141983,0.276219414101936,0.31168318577192233,0.35182269647150843,0.396856779400673,0.4459906880375989,0.4977161864039881,0.5495762237174301,0.598018059428661,0.6404339152339209,0.6812926091947337,0.7383859387891177,0.8361077578352333,0.9790130445455935,1.1239669093368672,1.1811657010567365,1.0549922165318792,0.7045577218038036,0.18319627202641148,-0.3765302628669567,-0.8266578873774227,-1.0735963799941128,-1.110518609371447,-1.000431955081712,-0.8308039322798058,-0.6720908398343941,-0.5608288120756824,-0.5041227930028286,-0.4896128897779502,-0.4933751719399947,-0.4892477656957329,-0.4618028620655945,-0.41535077644198315,-0.36958880674467526,-0.343963628688356,-0.34253692137703046,-0.3509548372447318,-0.3479391833580092,-0.3211804282709636,-0.27429897945670506,-0.22167659649585103,-0.17827649207695156,-0.15153008380791955,-0.1384536562225341,-0.12906119244033212,-0.11403614191337849,-0.09119450808353617,-0.06603490059574377,-0.04676149221583159,-0.03787749442932292,-0.03660752386788679,-0.03473970637745297,-0.024702458768268598,-0.005235151583818487,0.017571810700976714,0.03463326961332393,0.040770132306209364,0.03929321594488357,0.04012496708926659,0.05230576159389731,0.07685710447252751,0.10549899260907383,0.12614309531050039,0.13106362468736965,0.12182594670933511,0.10762184115224663,0.09848303576151095,0.09871544376240016,0.1052503982953969,0.11133745304002317,0.11196367445373959,0.10644571872947534,0.09707065263137074,0.08662120907568244,0.07697530851107506,0.06887939680278549,0.06264957048749425,0.05884118490490821,0.05816994290301156,0.06093826087856826,0.06599414971629172,0.06996693391698691,0.0686302221207256,0.06043018933741308,0.049083618618853846,0.042314103525312674,0.04708982025141518,0.06415276468068133,0.0856885227533398,0.09913636212879598,0.09510804985086614,0.07342396640700116,0.04325562045436556,0.017519800949051735,0.005414780906448891,0.008484640304425365,0.021599484135395017,0.03612906113118659,0.04411235949305729,0.04234089859221609,0.03267526643125702,0.01846501669465377,0.0021839366369161926,-0.01350231796261031,-0.02461578357041945,-0.02742070415587752,-0.020882277695586416,-0.007324340045792027,0.008725665128891693,0.02244403300212322,0.030581172503504055,0.032528968823822266,0.031184030815010786,0.03409946416453179,0.05223377345278401,0.09365288448453958,0.15477420787421192,0.2174114955606702,0.2594423715984313,0.2736243829026408,0.2738710830204658,0.2767408172590466,0.2734385177247314,0.22091525916899343,0.0674278519203223,-0.20041220129582496,-0.5261147316158205,0
-0.07975182111548845,-0.08033831159480738,-0.0833413008742353,-0.0889615019556891,-0.09619097692064268,-0.10312959956165828,-0.10815501090268638,-0.11061936853642561,-0.11033550903751292,-0.10745036856005799,-0.10306826070906004,-0.09902783568835088,-0.09666101369760342,-0.09584570499657956,-0.09514215803877643,-0.09293656759456917,-0.08850647540009497,-0.08178545224080747,-0.07266802553525732,-0.06114865483113592,-0.04764999985924659,-0.03302430810729014,-0.01839999589831704,-0.004495436310876592,0.009310882634697577,0.02488496356385158,0.04393215978410288,0.06699053941902273,0.09381753490833974,0.12393189032246632,0.15668961193713155,0.19120578840574642,0.22635699446161564,0.2613993867779783,0.29689399636610286,0.33461171554689195,0.376110172641969,0.42172797128984746,0.47107494300162545,0.5238107757142614,0.5798548041567407,0.6387068424227551,0.6975911025312069,0.7501736618030438,0.7902474337149482,0.8250161224120734,0.8880887352757675,1.0223614590807333,1.2271453366784333,1.4164564062260703,1.438915819368147,1.1619162035394264,0.5697433386824317,-0.1981507767973064,-0.9081809113626333,-1.3582901134385243,-1.4821036448227787,-1.3619468855318506,-1.1523740206813289,-0.9787307048065689,-0.8818005723473071,-0.8349970210245485,-0.7983731521322284,-0.7521803664358129,-0.6954299039160702,-0.6337485144282073,-0.5731980790074024,-0.5190174497469485,-0.4748490533235231,-0.44139223879867556,-0.4157185887361484,-0.3925216257364315,-0.36674445943117545,-0.33528243266079694,-0.2971084529977035,-0.2532825033905378,-0.20696459343084378,-0.1620583826190192,-0.1207482977122217,-0.08279177434789033,-0.04770827200832925,-0.016572513065648525,0.00903282672288179,0.029084665983085664,0.04556241001830433,0.0609780795984592,0.07664142999699217,0.09223498578301757,0.10672725834104389,0.11927424767999896,0.12946657988944466,0.1372361668890382,0.14239044181606908,0.14462818613071304,0.14454089731008002,0.1435873695067441,0.14277248492981448,0.14237658496299072,0.14255471348293697,0.1432839772416371,0.14413346170684535,0.1443116333847345,0.1427716859558341,0.13869200363757292,0.13212175819464805,0.1240010583657303,0.1155600100934866,0.10785672576225785,0.10155413652042244,0.09652539606193773,0.09174020337742685,0.08585610562139205,0.07809397954476997,0.06865301525270925,0.05852892287599861,0.04917945608375388,0.04181935236948534,0.03680347109923438,0.03386198106856072,0.03234508654042365,0.03116045087278528,0.029082689424077216,0.02539347182261943,0.020131914106980765,0.013860387118714797,0.007680052584536251,0.0030513891369994706,0.0008032726064891218,0.0005979294589279812,0.0016242274942816232,0.0032545366527860567,0.004725452102419054,0.004757471180984178,0.002329152033883326,-0.002195503819697301,-0.007234394757079902,-0.010838233285347698,-0.011334623756366137,-0.008257032221898315,-0.0027332884963801977,0.00335576219328239,0.008306297740819436,0.011124394436355194,0.011852610925919788,0.01143262929859499,0.011179089735906079,0.012418790172734407,0.016024243297360588,0.021671519263170645,0.028259465962470955,0.035018230254259465,0.04127931869434053,0.04593872937348341,0.04782670456969306,0.04633079343598634,0.04195570237354671,0.03615021653277506,0.03024076841265738,0.024818279041529626,0.020089605337052858,0.01628041647464569,0.013249587564968036,0
-0.08415028685684428,-0.08616460913567411,-0.08584825801054388,-0.08433023283892022,-0.08343593424350401,-0.08453084645846144,-0.08772891996627641,-0.09206901833491468,-0.09618627446550156,-0.09869586879906257,-0.09851973330645042,-0.09548142473784899,-0.0901403242340712,-0.08325715788676985,-0.07601290050679299,-0.06984848275000292,-0.06555166689961309,-0.06268120053775521,-0.05957728715762564,-0.054055634688202826,-0.044601150751096885,-0.03115057604833359,-0.014929947212723749,0.0024822684702408998,0.019911640449998238,0.0364957475102995,0.05192498852724098,0.06727857661534323,0.08456730547631372,0.10534029398639304,0.1302822989804367,0.15928124077803577,0.19131961256783603,0.22508631407918742,0.2598182089283826,0.29505843809597265,0.3303978443963223,0.36626316231864725,0.4039442114757477,0.44456389870207436,0.48901867567576224,0.5379712944106213,0.589713394430716,0.6381032771528122,0.6761715425913746,0.7087937693807157,0.7645179392192867,0.8805324794966258,1.0556797268640319,1.2136112322741106,1.221780146620614,0.9666633602536272,0.43876375396515105,-0.2360874800394653,-0.8522234439949539,-1.2352514298591306,-1.33150122430285,-1.2161701718184021,-1.025578711599569,-0.8696566664931098,-0.784047503966347,-0.7450148401305522,-0.7170027669301512,-0.6822544643851244,-0.6390897632623511,-0.5904925869132974,-0.5383534494392054,-0.4831298334509904,-0.4252534386015019,-0.36706238297886173,-0.3139593535900542,-0.27267737591568764,-0.24731034949101563,-0.2356128959134156,-0.22857675365842198,-0.21492983967617998,-0.18758704045811853,-0.14753162392079397,-0.10267869203041248,-0.062262177287288806,-0.031064352083363,-0.007817977095243345,0.012427461589391467,0.034804624050178506,0.061516512503875354,0.09040191040040817,0.11690977436723232,0.13793781680626907,0.1537407892188613,0.16699862365470547,0.18090498248855996,0.19773937092429536,0.217945125214397,0.23965561057858292,0.26016107223069956,0.27935629110147703,0.30069788255913277,0.32675385203835017,0.35336790183273137,0.36852576624351446,0.358125028794008,0.3153088956772983,0.24633828992578022,0.16806410487022888,0.09871232515281182,0.04901987074372499,0.019571819767967128,0.004306895571892084,-0.0037660792192582143,-0.009228891258770251,-0.015125823942479882,-0.024965524593578408,-0.04201282729588496,-0.0659436969714901,-0.09040727236119436,-0.10541550878296267,-0.10430750518896409,-0.0896909326666646,-0.0729657212107534,-0.06721223268829582,-0.07842514170655998,-0.10172471597250565,-0.12506619485736048,-0.1366668506418225,-0.13089183203471866,-0.11023259703227872,-0.0828757959249644,-0.05704247978057966,-0.036168235961168235,-0.01848753222919911,-0.00035596172310004785,0.020110482130204922,0.041750624228892294,0.06177037597999089,0.07861362011358354,0.09406239318378848,0.11216209099690423,0.1352389604859394,0.15990930114936175,0.1757979171592702,0.16950624734723274,0.13335849903545846,0.07236575801461344,0.003508089792441449,-0.052527992410376055,-0.08251928905386005,-0.08684693408436642,-0.0762008171396476,-0.06354060390543816,-0.05749311093966642,-0.059418907202083204,-0.06483460877602333,-0.0678459992483481,-0.0653894198789579,-0.05862041431563329,-0.05091215015932283,-0.04542413906193302,-0.04452043447124547,-0.048939061445156605,-0.05624892963589371,-0.06171286593512983,-0.061561640198490655,0
