-0.009688310494867902,-0.013993240918266696,-0.01537631145398801,-0.014202298410998158,-0.012028805124862933,-0.010324802999283003,-0.00989011350071142,-0.010680904888740593,-0.01189391045199553,-0.01225848133314177,-0.00998025493012978,-0.002462139413499422,0.01291877880611918,0.036071691905428346,0.061325732937712825,0.0784318958174177,0.0786446807117363,0.06121006205321456,0.03464266481260139,0.01209214408572348,0.0041745394729362706,0.013414893005246111,0.03325099844239466,0.05210981871078612,0.0601719010711598,0.05456845797093042,0.039663370341122106,0.022814131706042566,0.00933417430406059,0.0003733297676332308,-0.0055829954243734915,-0.010236340833126549,-0.014379041639187056,-0.017586920839392027,-0.01822510664494359,-0.01448238664606547,-0.005428725681597623,0.00862965643790492,0.02530721268593143,0.03975907855686645,0.04663366028816826,0.04251800098395144,0.02733075773967176,0.006753215317819574,-0.00440656515684845,0.01835290747994365,0.10392771568033686,0.27149540155459856,0.5088620889255279,0.7572636393235124,0.9214046306119474,0.9085572351906293,0.6776467540239053,0.2681108788360107,-0.2121757767230969,-0.6356849173789615,-0.9115400811843215,-1.0157092848000409,-0.981830645100592,-0.8664707562952632,-0.7163520273102778,-0.5566825299773959,-0.39865088435242974,-0.2511064775584468,-0.12490709840365065,-0.029336682328466875,0.03270392047005694,0.06517778786313472,0.07567584432311153,0.07216062160259273,0.06197332522704675,0.05218118853309076,0.048841667136053375,0.05501927256102115,0.06900398776252906,0.08436281979394848,0.09321351563200116,0.09113225935144137,0.07956017156481288,0.06378197028201546,0.04905445399724495,0.038265695062942445,0.031743967432376716,0.028255941304322702,0.026089744567658092,0.023594210962955383,0.019464852685321984,0.013252565111214662,0.0057205346394809415,-0.001567232890347969,-0.007138093381264018,-0.010462604365529721,-0.012137386098845144,-0.01298222350508107,-0.013056372473516441,-0.011834645663666252,-0.009178643835782988,-0.005775001357400791,-0.0027119577415410587,-0.000501394624976299,0.002183870493764442,0.008476016748069894,0.020849131837862044,0.038468438900764484,0.057404230933594994,0.07335386939910621,0.08419357963594211,0.09102623792031556,0.09754031324310355,0.10759704777460012,0.12276705022550514,0.14181435689307265,0.16160393602975032,0.1783874866092409,0.1891269070968533,0.19246849495588703,0.1892105306143588,0.1819030783190236,0.17315959654755583,0.16388666836816893,0.15314198664160117,0.1392297382996847,0.1207538136835425,0.09715736293216168,0.0688807633232976,0.03732350753961712,0.004366927775076877,-0.02834819916947936,-0.059690543106737166,-0.08878896377075067,-0.1144541565891788,-0.13491965922722884,-0.14872356679820214,-0.15565929356247554,-0.15664961499321522,-0.15362873323147686,-0.14962915439842084,-0.14731567995867678,-0.14673392736669763,-0.14560871070583511,-0.14183090425741868,-0.13450455610057835,-0.12338042597317779,-0.10889894410856268,-0.09273789295231137,-0.07751757284609473,-0.06526064846678799,-0.056115298467707464,-0.04903523664476776,-0.04287132390483903,-0.03631882319903596,-0.028214068736272545,-0.018491498159855756,-0.008583895299528507,-0.0008985585033946704,0.0029193760865405295,0.0034042771658352074,0.002433817407979589,0.0017845012827638652,0.0027061361006280316,0.0055803426323323795,0.0095265290092648,0
-0.03309814314306061,-0.03852180132177406,-0.04098160299691694,-0.03872485372647444,-0.0324805782159179,-0.02544765540904251,-0.021423377883825586,-0.021940427049206287,-0.024449971963206637,-0.023630357886468573,-0.01499044671822387,0.0021582386608117927,0.023888121401083588,0.04329676080615173,0.05418787288413321,0.05439930664031141,0.046633403774422565,0.03691284162498775,0.031500593023546915,0.03341433824079603,0.04076600751194856,0.04840554834922187,0.051589697419326064,0.048920112551623866,0.04246638502561934,0.03523542433831833,0.028518752547673967,0.021755262091408066,0.014435834610658253,0.007246609170145029,0.001478441440357127,-0.002217967101500776,-0.00440431354324106,-0.006159428138293673,-0.008007838515754706,-0.009442176911284775,-0.009228415910629457,-0.006493912292091832,-0.001890654295828016,0.0020551786293768618,0.0013517046834070762,-0.008112721527353239,-0.027216256227701636,-0.04825591145077314,-0.050245130483002845,-0.00046401469700755975,0.13179633815715203,0.35147834216269086,0.6174763483606209,0.8426881212358555,0.9241778175624296,0.7937532354957418,0.45874557074677386,0.0050515859180356,-0.4409832995833426,-0.7693695183204342,-0.9288792919389814,-0.933140435288834,-0.8337922895311264,-0.6850220111662483,-0.5233028924880629,-0.3674739219559896,-0.22863662869098064,-0.1167300068503157,-0.03831939288853246,0.008254321586831988,0.03222443513073594,0.04516757051206434,0.056023869281642276,0.06801697985134142,0.078845219246741,0.08472081358791997,0.08444436416739767,0.07960277478003687,0.07226560967432047,0.06387243942719159,0.055768099088208595,0.04944751395937284,0.04558683825031218,0.04312419029694442,0.03994598801850599,0.034193353012141076,0.025230631563582125,0.014311758234144479,0.0037704680558953985,-0.004828058488438638,-0.011175341649931485,-0.015294836176586375,-0.017248903498025984,-0.017710313625139293,-0.018047012972216017,-0.01965362619380148,-0.022993861395544973,-0.02710806553239275,-0.03034451836602544,-0.03147923484734698,-0.029559161043042275,-0.02311401334418032,-0.011212089587966115,0.004492803413241806,0.02015321422553276,0.032364553461541615,0.040343355850768516,0.04627592898467811,0.0537620075935388,0.0655869125694193,0.08250306940309568,0.10335401395608304,0.12565274097856233,0.14635938172928434,0.16306771002884024,0.17471183529541884,0.18141465691027683,0.18440489875308744,0.1858636215456656,0.18779721032439556,0.1906132843410278,0.19271104298766764,0.1913383696323105,0.1837941094535923,0.16804968204521506,0.14348524529934914,0.11167924805776183,0.07577505899868267,0.03901469167320982,0.003932542688432489,-0.027747201825281682,-0.055117126282037215,-0.07837918292249693,-0.09860911837339117,-0.1164669323616451,-0.13166186939986368,-0.1437789778691517,-0.15252163608604097,-0.1573506547808814,-0.1580363736550182,-0.15543820306411543,-0.15103516822188057,-0.1459186122732901,-0.14056258395764892,-0.13488470413890383,-0.12829797452011268,-0.12040309647824433,-0.11152361429129254,-0.10214275299455122,-0.09241298588368944,-0.082547366119926,-0.07288003477060079,-0.0631767066421755,-0.052471681615342346,-0.04002208553792545,-0.02635825796451307,-0.013434003161156002,-0.0038309417120122487,0.0007993249634943057,0.0010228654851351208,-0.0006154498327189846,-0.000976954975508329,0.0020838308250383415,0.008620923201138445,0.016762241528526508,0.023890243079652058,0
-0.02334725090164924,-0.022573130543677815,-0.019550067166944272,-0.016212197603376246,-0.01446178113511529,-0.015550215526784195,-0.020072128525486455,-0.026955368138877764,-0.03262513435147923,-0.03259314802658564,-0.023979662013816554,-0.0069132548717969495,0.015043058948276174,0.03563617357359694,0.04835883437748306,0.0495576311237729,0.04032980757209148,0.026035189548951846,0.013691564100303283,0.008444500912731105,0.011155509091400178,0.01896242690738469,0.02775440745427709,0.03441906068920229,0.03806053831625244,0.03939728524683898,0.03900053266480001,0.03674586878204336,0.03265841822797752,0.027345134316048146,0.021471436788783528,0.015416000604627264,0.009414336307297235,0.0033860319100426925,-0.0027131849977662112,-0.007764735533306483,-0.009852376420592711,-0.008042684240243353,-0.003148627572721565,0.0023329901108041966,0.003816558566294503,-0.004652269930612532,-0.026264104219435053,-0.05479373413199392,-0.06927316335646447,-0.035352452270164716,0.08157820803785179,0.2928121908045897,0.5641515578778457,0.8122254374410286,0.9310059411398766,0.8418834273911139,0.5387473008397055,0.09725210703211704,-0.3587538333302784,-0.7125462038538626,-0.9001480629895195,-0.923761384177763,-0.8308560879606275,-0.6786388759066648,-0.5096815917875943,-0.34813733557010473,-0.20739494181827112,-0.09686884625078306,-0.022484025620216765,0.01677458406224004,0.030187610482350767,0.031627444868128615,0.033310658435990355,0.04086117414788468,0.05230911803881964,0.06149867481707695,0.06329421746292535,0.056786390919464025,0.04484502382160196,0.03164608697785508,0.020398176974612544,0.012084183460101573,0.00598348100322213,0.0013460125468122974,-0.0019645654851691077,-0.0037638817026837343,-0.003606836166521323,-0.0013021299504854915,0.0020291789157807355,0.0038391069760032957,0.0015307850822619765,-0.005501706809524335,-0.014684941731182987,-0.021243274333187144,-0.02087937958835437,-0.012353029868062396,0.0015014972530023023,0.015010032776856284,0.022439806698963026,0.020504268012473112,0.009708345646711304,-0.005526567126847779,-0.018372821680552234,-0.022724881283475187,-0.015991574025809648,0.0007168015118580737,0.02399570977993935,0.04938011756966752,0.07264824558669274,0.0910740386856061,0.10414453326858834,0.11340635449649687,0.12146396238844283,0.13074606437828667,0.1421636664592958,0.15472210664824795,0.1670599683142753,0.17873571504895974,0.18947045228295473,0.1979445709109673,0.20197853325060375,0.20001035842721082,0.19217921178112765,0.1797655490102422,0.1638621886297938,0.14465776017159584,0.12180371978937685,0.09506062203399365,0.0644902856468358,0.030839075942139554,-0.003974986168609633,-0.03712314816993457,-0.0657771022386846,-0.08833088302700967,-0.10523627750957171,-0.11816790382057234,-0.1283091122312841,-0.13608844975251694,-0.14177940045955856,-0.14562226248243232,-0.14798058825610136,-0.14902244527663436,-0.14827301957093464,-0.14537979814060875,-0.14052134879987468,-0.1336097418854758,-0.1245199298620809,-0.1142813574424402,-0.10455419068119647,-0.095844864363295,-0.0873734596841519,-0.07843365820723051,-0.06894229046963582,-0.05923870529665745,-0.05003618450995531,-0.04200956867430557,-0.0353207294281092,-0.029515796327114967,-0.023627174095146336,-0.017117210475917105,-0.010638277881475287,-0.005063462782688068,-0.000333114384485321,0.004500489308262991,0.010527184769171884,0.017852124532133355,0
-0.01977677742893242,-0.015730502189783988,-0.01298680780051324,-0.012326012228901525,-0.013877826404636867,-0.017222385732935497,-0.02093293284291501,-0.022268140783584113,-0.018221688087018365,-0.007206384226140924,0.009631229974893263,0.02837257645323799,0.04400098421247475,0.05227835785073183,0.050908225458435444,0.04065059463164992,0.02589170060839773,0.013247513808100991,0.008089416170997527,0.011133654161172185,0.018238845806643353,0.024000907552151694,0.025802027347204413,0.024509770397795845,0.021835160340087627,0.01801269516618918,0.012178804946002467,0.004097310406480382,-0.004849705694644342,-0.012143653418333214,-0.015788775264705998,-0.015864716276172603,-0.014443719784218876,-0.013826948639428792,-0.014731049112786177,-0.015727310115980993,-0.013885982958685702,-0.00675469404521737,0.004749584219954491,0.01534208627009526,0.017935535477552104,0.007991627597890932,-0.0121594973214133,-0.029438434799642595,-0.01830015669682122,0.053752089655663124,0.2095032012308478,0.43962531962896406,0.689017813209823,0.8661333477301901,0.8789316752880367,0.6824267983559131,0.3087553902597153,-0.14192659430757354,-0.5464007887709106,-0.8127599720838312,-0.9122400439302686,-0.8735671785288721,-0.7513654334758196,-0.5946387037939362,-0.43371525345138806,-0.284037957961814,-0.15467005058399924,-0.05318119348976168,0.015204716982560512,0.05131784565581953,0.0631566369689362,0.06211659320297488,0.057514877709552666,0.05403209688289168,0.0527311102809119,0.05280824565894056,0.05291217325960824,0.05246766939904678,0.051772875600094616,0.050775232554522765,0.04854944965149696,0.04372566140420868,0.0354590930460007,0.024659942652860964,0.014009226450762937,0.00630463768657084,0.002200188313699423,-0.0005744890521647301,-0.00509700864701162,-0.012396573845053646,-0.020542595163872412,-0.025958946263968448,-0.026065602687553004,-0.0215342077369019,-0.016238352824482938,-0.014277383583192405,-0.01659133796874788,-0.02081183052195006,-0.0239054667131093,-0.024363102151725276,-0.022342785737781447,-0.018548720222370193,-0.01333587345744418,-0.006342556106898463,0.0030624377089739953,0.01447323722557417,0.026325455931095393,0.03731499558298526,0.0472992829847367,0.057332573019151345,0.06906950118519567,0.0835030263387407,0.10030415999480762,0.11841363169419412,0.13673004695746013,0.15434053875642567,0.17085092284902473,0.18640907678339144,0.20048133831701467,0.2105147926368651,0.2129031612053739,0.20580155556364949,0.19090607839750792,0.1726320203075305,0.15530883541292187,0.14031775821214895,0.12479006407631772,0.10305225389530126,0.07085415536456877,0.029289002980043607,-0.015189082094017793,-0.05450054152292081,-0.08325739999037862,-0.10102326873348161,-0.11132367243610333,-0.11831673462158726,-0.12424565802415381,-0.1293397822444481,-0.13314026790181943,-0.1354062482612174,-0.13589401681422847,-0.13427196960736187,-0.1307586379350994,-0.12634019595836432,-0.12200812950251312,-0.11783942159268608,-0.11290949025709987,-0.10605518806060373,-0.09666048662213726,-0.08501162217692956,-0.0723706008653488,-0.060742130087694704,-0.05203881081258903,-0.04681675274762934,-0.0439202126487621,-0.04154363751132567,-0.03836679628412937,-0.03391291415480946,-0.028387791563648006,-0.022459748177476334,-0.016865086157779666,-0.011657345116023388,-0.005734148599783641,0.002404628356025562,0.012732448338298091,0.022901556962465205,0
-0.019013505537552843,-0.015299106576688981,-0.010381955808810163,-0.004817560375543283,-0.00022938204969881124,0.0008614663125459036,-0.003084267202188629,-0.011066808997967123,-0.019560787060363835,-0.023689414449835026,-0.018983437970467913,-0.0037330395347403384,0.018914165457650078,0.04123098528957465,0.05443754348181523,0.05362050223396176,0.04080787778316313,0.02372244586644902,0.010812911220855391,0.00662341356535191,0.010459044654698487,0.017895844987352725,0.024060738578950656,0.02669946853669606,0.026498126704591403,0.025001909621217393,0.022411414002089725,0.01725758170081409,0.008510102685669301,-0.0024174345263756284,-0.012405997202231872,-0.0190562752861436,-0.022092311969937682,-0.022553409831241242,-0.021172856784417007,-0.018127508030430384,-0.01372163562851381,-0.008397856194262582,-0.0025902094501594336,0.0025971580560506685,0.004364142407316855,-0.0016529297798481696,-0.0180771672404881,-0.03935405846279751,-0.0462198452746828,-0.007089512802962939,0.10941676268851751,0.31301513523858265,0.5715963138064912,0.8072169299431902,0.9199042834433016,0.8338333419060737,0.539865095315294,0.10703862232204721,-0.34558268254684754,-0.7015462436505049,-0.8938884988693492,-0.9208062327752116,-0.8273364373323842,-0.6719000471220768,-0.5005489318956629,-0.3394358590116277,-0.20100807017985378,-0.09250889832797603,-0.018369361018664015,0.022773509278270307,0.03941246857129113,0.043381110927996666,0.044317626584346015,0.04682974410205406,0.05129957674017808,0.05636020279745946,0.06062724720050211,0.06303549000961522,0.06277809858210073,0.05924558669995799,0.05192305865447985,0.04095543377765678,0.028157300613558516,0.01660978119813481,0.008899561906768544,0.006068371833098888,0.007280667082872292,0.00993047995863124,0.01102747236991227,0.008593970246371749,0.0019243920378181727,-0.008250857973150113,-0.01966591058028576,-0.029259718361515967,-0.03457165373023888,-0.03516058015905045,-0.03288707624272239,-0.030379833731080004,-0.02935169056128704,-0.030338512222555732,-0.032748979219125285,-0.03471483969361379,-0.033857927252892286,-0.028604335003359325,-0.01887191271716425,-0.005875188136039646,0.008641331037253612,0.023410195802499107,0.038136725782141445,0.0530275935095124,0.06843390199684588,0.08470163396808704,0.1018319391686253,0.11981384346401129,0.13873686135183488,0.1580594009321884,0.176763374811302,0.19408785023533348,0.20910894328383872,0.21988143325512874,0.2241546785514601,0.22150638930599434,0.2140535795290849,0.20455078022672366,0.19406362997202678,0.18081292658581155,0.16070249161475186,0.13033183088012973,0.0902040468566298,0.044434913077434246,-0.0015260084264866053,-0.04229631616256324,-0.07401875826328316,-0.0961153030396092,-0.11116652606621204,-0.12254074233165507,-0.1323521156906015,-0.14113401458724878,-0.14816952728987526,-0.15231018251861095,-0.15311673361064562,-0.15095881301336972,-0.14626475067177408,-0.13927600620352348,-0.13045410020528708,-0.12072650901523535,-0.11108483245685957,-0.10203955635995338,-0.09348706928631069,-0.08484068516532293,-0.07548934592361067,-0.06556324338227637,-0.05614623603436795,-0.048487434976575344,-0.042853708463299216,-0.03831280588787534,-0.033765308004642974,-0.028535778944028728,-0.022142644365920276,-0.014649962847047181,-0.006961374347832547,-7.341012654308796e-05,0.00532414092622192,0.008593232636611704,0.009725251994332999,0.010150816597779971,0
0.012251886195268864,0.012586321359310808,0.012441684942626749,0.013326405364349545,0.014601535779207357,0.013792876683612043,0.009161408691343267,0.00160826677583984,-0.005929567898729871,-0.009827845720546761,-0.006626427574829502,0.005073315115913751,0.022125868216660655,0.037371751307535755,0.04374248463922457,0.03843530513096182,0.02445547930729824,0.0088555171968512,-0.0012541763510651492,-0.002433242054687627,0.0037123683226312418,0.012436210719037593,0.01947409107260003,0.02297293456058598,0.023009457058488628,0.020306925770121175,0.014965944209804358,0.006468990633941812,-0.004714099015838306,-0.01646650942184258,-0.026360110751385023,-0.032888945920499714,-0.035667929090957076,-0.035372129725989146,-0.033110169350211424,-0.029339391723538766,-0.02378457099079409,-0.0162141356519031,-0.007144934182160492,0.0008885103452227717,0.0017564640794551214,-0.013138431394466726,-0.04865811840680156,-0.09706707010362481,-0.13212692020143887,-0.11160402911461423,0.00692289992343904,0.23838032069858348,0.5448931557186258,0.8325921103591485,0.9816880254174787,0.9018323074492631,0.5827807406005276,0.10641648328618933,-0.3892706842876568,-0.7725685329054961,-0.970908950688216,-0.9869490769647975,-0.8757745342051348,-0.7048287201282455,-0.523968137134214,-0.35863335401424123,-0.21849220461739616,-0.106941475384611,-0.024524135755156447,0.03181714168813289,0.06885154280177624,0.09471882982788093,0.1156556199588457,0.13366714005033947,0.14660407064754202,0.15082770920883368,0.14450124990917912,0.12928876111501378,0.10963033400742236,0.09029775639035657,0.07436409589749896,0.06267811769296275,0.05396296931996852,0.045634552029672676,0.035612816909368475,0.02335194766868263,0.009396048810918494,-0.005023281232077916,-0.01821473980829654,-0.028801037324464,-0.03635336535458978,-0.041349440329943414,-0.04464857835407924,-0.04673715939577966,-0.04765523421380357,-0.04784228946705587,-0.048278601267797,-0.04947328792862029,-0.050822644061141745,-0.050677181851818215,-0.04696842411305012,-0.03885519225571612,-0.027824640133542484,-0.01626927900837494,-0.005200183262029752,0.006221802931228706,0.019523293032324678,0.0356477394478247,0.054572062955452715,0.07572547312807888,0.09827598306172602,0.12142642647061858,0.14476775619633167,0.16756687145822582,0.18798920046699683,0.20439295738924976,0.21718370251387537,0.22821534374837016,0.23874855016299013,0.24877359535146723,0.25732973804398984,0.2623731011316999,0.2608755064752488,0.24984743450851085,0.2275018708018834,0.19406485793966521,0.15166418013207417,0.10297528380150059,0.05066799973405618,-0.001636432690509143,-0.049481129670917896,-0.08912593884589876,-0.1185851356125393,-0.13817822088500148,-0.15080834104690063,-0.16066718108551126,-0.17065675797279375,-0.18071560973123196,-0.1883087367214554,-0.19071877477081817,-0.1872583361922154,-0.17940303528063142,-0.1694318049583767,-0.15932327221004328,-0.14999064320977454,-0.1410491577690356,-0.13197658744702648,-0.12299842993720017,-0.11405488311429757,-0.10426140829544167,-0.0931417878303159,-0.0811407850358678,-0.06913138821682216,-0.05829988187841363,-0.049583823039682375,-0.04285425909902281,-0.037264257571371015,-0.03204715982991166,-0.026703266057530536,-0.021117493996304644,-0.015772462012400904,-0.010935764796083745,-0.005427394374363612,0.002538811850220247,0.013001453322090645,0.023743672916481103,0
0.016410461458775664,0.02578183011895915,0.03500518046049533,0.04294276746262003,0.047715062798546655,0.047480958603628484,0.04159359625712411,0.030833083682336695,0.017574301884601802,0.005958960506807717,0.0004661726307021313,0.0037581240742744835,0.015457717407737642,0.03188394898667441,0.047184515232899835,0.056141535937021064,0.05703993016864704,0.05235311111687211,0.046247456438123384,0.04122254259811971,0.03744407241709315,0.03440985410970328,0.032220506485120703,0.03131774196268045,0.03133975016762275,0.030702241067043574,0.027479265064105824,0.020652651599052604,0.010951806452884634,0.00047661052544201686,-0.008668019002721091,-0.015086748891797837,-0.018318060902423782,-0.01912955705430608,-0.018779768324699367,-0.01784712964210349,-0.015935230226294905,-0.011633938944331831,-0.003479338593724724,0.006778237317125329,0.011429695037788581,-0.0013498845608522058,-0.04048211445260803,-0.10182015084806745,-0.1592118893734605,-0.1648390111771426,-0.06606936149881942,0.16367596857057015,0.4946459679127627,0.8318078659110903,1.043144410346193,1.0196481731886788,0.7342137290701057,0.26163738513433843,-0.2542104386140395,-0.6674944136633432,-0.8927057129141767,-0.9272213629654039,-0.827857954265815,-0.6665259014119089,-0.4969914695167943,-0.34611688370314686,-0.22220723937464654,-0.12638620051504806,-0.05814512859850873,-0.014767481312153642,0.010001504650674557,0.023814147496447474,0.03225339271495551,0.03799054924795697,0.04184491030298441,0.04364249470466679,0.04313017340703041,0.04076137885979209,0.037421718606266086,0.033749353850219224,0.029960431356463306,0.025888505243689745,0.020897565352990987,0.014125118465481905,0.005408772322043641,-0.004194053249207463,-0.013063791958933757,-0.01973935871559717,-0.023469443483507407,-0.024808732889888118,-0.025217496469393905,-0.026153333598981997,-0.028750442599217566,-0.033468470824376095,-0.03967603159192489,-0.04583477095419181,-0.05003091460341868,-0.050699981104471235,-0.047284897739483384,-0.04005284226932821,-0.02963635289557951,-0.017342397330690266,-0.0057651170643877895,0.001740016275937721,0.00347439762814657,0.001488438014113691,0.0007690893404151767,0.006683530707979776,0.022500621071017392,0.04755207454906049,0.07733536221864999,0.10610204312294635,0.12987461629052374,0.1478887225039206,0.16237643657680995,0.17669390955309466,0.19276775621602182,0.2103008074644711,0.2279671332415617,0.24465910010661276,0.25948838695095156,0.27082365849492784,0.2758997502428562,0.27156973096714604,0.2552947927536228,0.22635796265218727,0.18703523149744464,0.1419731129315782,0.09620609119941192,0.05394786597103882,0.017697795908332974,-0.013325195171695281,-0.043240646683771054,-0.07620487874044266,-0.1123482872654506,-0.14689309391594593,-0.1733269742151911,-0.18788832763327715,-0.1914563706328334,-0.18794546678759233,-0.18173488183300468,-0.17574234601540845,-0.17021640053601522,-0.16345327033843618,-0.1543150983663835,-0.1435016378228329,-0.13255873760189835,-0.12272917157768656,-0.11448782869861311,-0.10727855484735596,-0.10003103840558558,-0.09231890173478327,-0.08458616364561418,-0.07740196688513476,-0.07089883043555932,-0.06459909729849275,-0.057601306839913526,-0.04919391961575228,-0.03914779092058972,-0.027504306903586982,-0.01499426478767122,-0.0035116398829114284,0.005169877759607162,0.01108006047713431,0.015593935224680739,0.01986006719122683,0
-0.03334342275691878,-0.03460471521566365,-0.0323690249058407,-0.02823406237595171,-0.023580656073673757,-0.0195214775493582,-0.017426722453436738,-0.018551275157453983,-0.022408927633301864,-0.025186391566655513,-0.020328261841563815,-0.0024153338262298133,0.027841581578048887,0.061847665423349726,0.08680120598086546,0.09267999714397056,0.07802416570710219,0.050831555759733305,0.02393841761597746,0.007558482174326283,0.003996046159569312,0.008376377232018239,0.013770798288055403,0.01581890465501055,0.013940196953260996,0.009440655081129078,0.0031788790018389256,-0.004646069090115507,-0.013275733126441142,-0.021005216961474504,-0.025801065980818286,-0.025984500532972337,-0.021043449385246694,-0.012407589425084983,-0.003123212599801477,0.004061460869960459,0.008996693687062506,0.01413828656516452,0.021453969091602514,0.029256124690801386,0.03186847605206159,0.02226238623073903,-0.002488574602180202,-0.03353170413369664,-0.045295544193518736,-7.334835185990839e-05,0.13544440770275543,0.36589776758434944,0.6475043447187339,0.8890588641652893,0.98274858677521,0.8555778693036001,0.5122502493999713,0.0400164250541292,-0.4292005966357927,-0.7774382881123199,-0.9476066950322863,-0.9536685194731205,-0.8533376965137094,-0.7075649330874991,-0.5544561249165603,-0.40786808242205336,-0.2711805458197415,-0.1498254896593349,-0.05296762230084609,0.013094219373390073,0.04988316944968333,0.0650121583584029,0.0677629654256589,0.06606250542864774,0.06453386860197347,0.06387130618632375,0.06277846653663438,0.06068511275252479,0.05831227288809426,0.056489704273026,0.055532582155784535,0.05509217069903399,0.05367943252572242,0.049083268849574674,0.03973075269863983,0.025616853589874145,0.00892116470334875,-0.0063140524898860455,-0.01661767212633718,-0.021377408921007514,-0.022443082639020194,-0.022468614652234105,-0.02381026052248599,-0.027790981542992935,-0.034223424921410006,-0.0415026001614836,-0.04740934000045153,-0.050273879239354974,-0.04973600643671579,-0.04690820720324266,-0.043770646772255464,-0.04157135703820066,-0.03975825740264836,-0.03656042221685369,-0.029854284840132795,-0.01817359285034045,-0.002156722343436019,0.015931142933506996,0.03467268514520512,0.054336946256180824,0.07549030583343855,0.0981281775745175,0.12192291815407892,0.14629631687631175,0.17028757585469476,0.1928423625627378,0.21326498378767939,0.23153636287752558,0.24825589091258504,0.26324328742153663,0.2738867867196661,0.2764536001314382,0.2696032019054234,0.2555794331371687,0.23784667844981222,0.2181872406558748,0.195862613056414,0.16879285570265556,0.1350201755137013,0.09363481470812327,0.04579466558895312,-0.004898606153168547,-0.05357635914064833,-0.09594454548887359,-0.12972854168947984,-0.15466575235374597,-0.17136082468005476,-0.180856321323542,-0.18499660098767204,-0.18600732187555358,-0.18533970958568272,-0.18359088864436043,-0.1813047122774852,-0.17880959570929353,-0.17548682610863497,-0.16988146533829593,-0.16061862042470765,-0.14753017383018904,-0.13201050033900608,-0.11601307702925173,-0.10112562836870953,-0.08863230948571647,-0.07938546945285177,-0.07303701464164554,-0.06764613791462772,-0.06071868342671269,-0.051178684866203264,-0.040069890060160374,-0.029434994975452763,-0.020956686822552233,-0.01503878221008648,-0.010585175676488812,-0.006057302133402262,-0.0008611725568262521,0.004555308990420975,0.009552428054421327,0
-0.005449295264367611,-0.005810532384192145,-0.008310665268785492,-0.012304483657153163,-0.017915677099078473,-0.025467978981283095,-0.03394672148461896,-0.040738498959358146,-0.042576700369653595,-0.036348363044790416,-0.020212138281087557,0.004099552186952572,0.029926723688530613,0.048225671368581136,0.05303152715870977,0.04537937820756158,0.03245134918810988,0.022736554389653538,0.020991384962686717,0.026358761535118964,0.033982368363035316,0.03867592144026947,0.03843035640336822,0.03473115724712302,0.029622230782935844,0.02350883808510394,0.015888411543067103,0.00696108149362587,-0.0019220870208414,-0.008786453553712846,-0.012137502021816862,-0.012116251895868691,-0.010309488817075382,-0.008194875696619041,-0.005923783079120275,-0.002424384031872477,0.0035396587307674502,0.012300775688940689,0.022365450777761985,0.02908651650371821,0.024398840561891733,0.00011184791656042997,-0.04519657212962537,-0.09751482319025653,-0.12197340424441878,-0.07001505194969651,0.0965160006718313,0.3739346773610083,0.6975028705049281,0.9527631975336261,1.021044843352624,0.8386961351734691,0.43474534668281495,-0.07725152730852777,-0.5498454651036775,-0.8669108713000548,-0.986332420350126,-0.9384626626826742,-0.7905722988620617,-0.6071664383637734,-0.4291125292172775,-0.27447197204085516,-0.1494853160641921,-0.05718670715757326,0.0016090106973598514,0.0316662757672195,0.04368197034875698,0.049244777346220445,0.05513837861235798,0.062056437830090835,0.06758297604100721,0.0693811941279714,0.06647584838058868,0.059632712676298195,0.05109378148524294,0.043272649282964086,0.03730484494253712,0.03274287186185135,0.028454799103768365,0.023484934397369393,0.017320829665633922,0.009915992240734646,0.001346908978501555,-0.008348095222159471,-0.018501613864367827,-0.027606367106165104,-0.03434774256383759,-0.038578127062774,-0.04119045795000104,-0.043216850007429385,-0.045165172124974166,-0.0470946010287862,-0.04892801577203346,-0.05046749056224151,-0.05115373672691659,-0.05011110903440393,-0.04678297210636497,-0.041277991349657,-0.03386003656297511,-0.02443367765542883,-0.012621168717499083,0.0015641968581568207,0.017170524861737806,0.033122159513814614,0.04957057447937084,0.06750252716047062,0.08736767340490993,0.10927267145377863,0.1332675031082484,0.15819879807772771,0.1819450604398829,0.20317124247917762,0.22150376979332909,0.2366237468114249,0.24846242944046795,0.2577490279474656,0.2653190680876528,0.2707383291316777,0.27192071044407157,0.26634170885123365,0.25228887566876135,0.228770631348169,0.1954719244222322,0.1533869614390284,0.10482945273801869,0.05313364127422575,0.0020367007508458324,-0.04559088692970424,-0.08785552640511807,-0.12292842028023993,-0.14937220344436658,-0.1673929543967747,-0.17897580347530534,-0.18648446747289465,-0.19118202499187878,-0.19310201388412296,-0.19193182719553123,-0.18741194369007314,-0.1794202004152389,-0.16869981274469717,-0.15716822851138887,-0.14679007541665703,-0.13825180250568342,-0.1308167976127457,-0.12294124281103869,-0.11320161106614478,-0.1015668134213153,-0.08939912791982632,-0.07774275005559715,-0.066698913320674,-0.056405802247293024,-0.047284749271624085,-0.03955075829216115,-0.032869905131722096,-0.026184163113550717,-0.018457179451907325,-0.009697751354776785,-0.0007378397530294033,0.0074998428410600095,0.014280939076656347,0.019121260586408655,0.021801455996138967,0
-0.017541456259559954,-0.011108775549667254,-0.00698879038914283,-0.005822626142622301,-0.008217868110160188,-0.014519099127810083,-0.023959999101074235,-0.03409381024896139,-0.04140254978599504,-0.04184275428684406,-0.03146288263161663,-0.009080500717278917,0.02056380906870408,0.04741361193923505,0.061065721055247046,0.0568970367557109,0.039395336441609335,0.019947297110545516,0.009737433336525709,0.012736081443440576,0.024515979671066772,0.03724556854336199,0.045345086585262935,0.047151765202235484,0.04340235470142143,0.03555924372172117,0.025186790397563354,0.0141747638893403,0.0049731248843329365,-4.253145694683297e-05,0.00013710596111476004,0.0043030186376313406,0.0094453776510784,0.012450953879952015,0.012069302885678375,0.009479223577405676,0.007353854105347743,0.008564039522744718,0.014575838528841199,0.023615112040332203,0.029255321301111123,0.021473708929934,-0.006876724800833371,-0.050057792523824474,-0.08261382158891528,-0.06250779001484698,0.05188371042307504,0.2745480406960171,0.5673679064294748,0.8372012535308251,0.9673064684195624,0.8728462499444555,0.5482529372137518,0.07629907767881666,-0.4078048406894217,-0.7772735883516528,-0.9649089674197658,-0.977155833540863,-0.8694821968402168,-0.7061074914393907,-0.532134041158891,-0.3695054167686354,-0.22727944657996105,-0.1115287084779129,-0.028001693596467394,0.021592895070179086,0.04352591921576588,0.05026553702859397,0.054169192391387136,0.0619521639632415,0.07300866457085341,0.08203050841475953,0.08450669724857351,0.08108487798370805,0.07674283497255567,0.07574737363188493,0.07712632066791064,0.07443769806775491,0.06080034661310839,0.03556937738469085,0.006327882466749004,-0.015962837006591877,-0.02441501993250133,-0.020605461415855536,-0.013097637162250318,-0.011123761209632101,-0.018054927890296245,-0.0299572288360618,-0.04029899466210361,-0.04574627292490285,-0.04750339858280983,-0.04860588036269365,-0.05077480948856224,-0.05339341603878279,-0.05486440810449078,-0.05418918159165461,-0.05149969660835883,-0.047507550477226074,-0.042206567907231644,-0.034601494895589904,-0.023711562619539713,-0.009229236480954323,0.008887505583468663,0.03147445540024567,0.059589465640502624,0.09159798722184141,0.12212615928487403,0.14534577330489265,0.15912255601450626,0.16632675658457724,0.17283895995125886,0.1838511901387171,0.20106828686892395,0.2224953453303465,0.2442269586657243,0.2624200939059386,0.27457658595758455,0.27994211818511167,0.2785945120788112,0.2704541197392797,0.255158591406426,0.23197202741524037,0.20037619702001935,0.16131903958122923,0.11693046960367942,0.06891584884992077,0.018476574034167838,-0.03199474120024468,-0.0784712501367279,-0.11710947938017197,-0.1463849313187653,-0.16744784640088195,-0.18236293867088885,-0.192480798823046,-0.1985269994219884,-0.20114882483105165,-0.20067572113638638,-0.19693180829757423,-0.18989844488182958,-0.180338955914144,-0.16978728302534254,-0.15974177437426013,-0.1500294752411938,-0.13835788854825046,-0.12245286976325169,-0.10262983230005601,-0.0826231115399864,-0.06825781026448412,-0.06386129388785815,-0.06847925075959452,-0.07568250878755152,-0.07725393389095782,-0.06806105616218369,-0.04952100671032557,-0.028564737940520387,-0.012430887396047877,-0.004419555187366843,-0.0030636533952733483,-0.0036804846872163684,-0.0014164834589062286,0.006040137676666675,0.017750256094546515,0
0.01618509812455254,0.0030154937307861323,-0.014574271743792958,-0.02678757641885829,-0.0280160690582305,-0.021575934069154142,-0.017633107135072545,-0.02469815221957967,-0.041258344057265826,-0.055730668392794724,-0.055267252343203115,-0.03575812270648019,-0.005105740445356278,0.02274726335882422,0.03760793389207631,0.03822854317678426,0.030709580848030514,0.023554781151044785,0.02252210969548663,0.027685249305189136,0.0346341356063713,0.03882608571969307,0.0393221996958053,0.03907774583996334,0.042007917060689584,0.04883559058919457,0.05506208099188414,0.05373429221106585,0.04069920622916899,0.017698533280945908,-0.007888076568199176,-0.026189671834118588,-0.030422482460507112,-0.021191472578904857,-0.005159641133766218,0.01035834816651372,0.021544294250528492,0.028705681204333665,0.033924145845097585,0.0368546226001266,0.032052267204492044,0.01149365362231496,-0.027604871813789747,-0.07287239152129422,-0.09101174887439704,-0.03523445360251911,0.12961990630206566,0.39543887760128565,0.6949694201822635,0.9169528426822969,0.9511035214507065,0.7433918922755649,0.32966031020663555,-0.17533353285048775,-0.6296012007167141,-0.9261355101352838,-1.0289664907044471,-0.9680867440036338,-0.8069945996522566,-0.6082243102860734,-0.4150130819444101,-0.25086647969989817,-0.1265566828890939,-0.04466509722921147,0.00034905920003964336,0.02197147923329671,0.036128616161738784,0.05240755541698801,0.06998494630015768,0.08175510484920173,0.08228585254636747,0.07318915982558635,0.062251255411172726,0.057273204674315695,0.06003222356763405,0.06509098294453655,0.06346362599291616,0.048959637961142895,0.023803818141477612,-0.0011855852789303886,-0.013160614202094394,-0.006192416778662415,0.013655270794306871,0.031310284540165385,0.03235085527885247,0.012557288343270127,-0.018850160492865475,-0.044503759451753444,-0.050238418471793556,-0.03491864982286588,-0.011117231805225886,0.0038405283185997618,-0.0006337222244946674,-0.022555212533878228,-0.050406875584313976,-0.07171380432855508,-0.08009766436189175,-0.0761034492421744,-0.06328488633176244,-0.044625884067607396,-0.021995746331627417,0.0027555802932891387,0.02748797190953256,0.05119965461446073,0.07506054037158569,0.10047292605525582,0.12651894506475542,0.1505031628096932,0.17046367722307876,0.18666578218233507,0.2010944459643088,0.21560363177490569,0.23060139687584436,0.2452242448614452,0.25808227062068567,0.2681070815215164,0.2747616360342657,0.2770542449830613,0.27282876455675714,0.2592123618627822,0.23418002817229566,0.19859899636923212,0.15612242056093154,0.11055171167630048,0.064195373342427,0.018311499278025126,-0.026267637222432458,-0.06865826122945878,-0.10755110057868707,-0.14138700554922506,-0.16858314087431464,-0.18768307522303537,-0.1979580837688374,-0.2002564308251984,-0.1968990579706704,-0.19044447997846184,-0.1830683849315018,-0.17666872545707446,-0.17205776129858213,-0.16816291781439272,-0.1629468328760293,-0.1548089431368408,-0.14326500043680257,-0.12934224997652669,-0.11507225633358886,-0.10200841508279714,-0.09070451393817237,-0.08122628387591711,-0.07318679614536888,-0.06568746402814617,-0.057898126957447664,-0.049574997606963184,-0.040764388957609206,-0.03143790080641788,-0.021905551919653692,-0.013038206465538806,-0.005492404244631769,0.0011125837640022299,0.007698419517492925,0.014388408560644717,0.020416971225255202,0.025216023379078523,0
-0.024823042620109845,-0.02715048956069429,-0.027724955827998814,-0.027217422406828708,-0.027179641383082893,-0.02855475811392967,-0.031063104016496416,-0.033074868336901514,-0.03153897210326099,-0.023249094357871255,-0.007521854321589185,0.012043623218975268,0.028643349609127476,0.03586400728311792,0.03185498639707693,0.02080712588098339,0.010066825082513796,0.005866707274093142,0.010530199788948263,0.0215992181931606,0.03359480556911116,0.04144655569601814,0.04263506100871399,0.03692418258463641,0.02568728366284178,0.012019398959351703,-0.00029395304975398957,-0.008845958350793976,-0.012985253306280052,-0.013018671886102475,-0.010250893922100119,-0.0067605574274704795,-0.003983288576711367,-0.0018373874892495027,0.0009596354860257781,0.006127087937602576,0.014865590672029368,0.027478184673298035,0.04298892637903388,0.05711268581418243,0.061014628032714124,0.04489994798347889,0.005876422080812426,-0.04326020987390114,-0.06905756239434967,-0.02457829229054042,0.12677764152304422,0.38074393943053736,0.6745783104566485,0.8988115324216933,0.941774303763662,0.7474510901324426,0.3504330628543788,-0.13623051037575384,-0.5734669061213724,-0.8575448710212792,-0.9554449572877164,-0.899181390261151,-0.7516408248751456,-0.5709701259883551,-0.3940289527298043,-0.23930894850516396,-0.11594440661114011,-0.028367891859864266,0.02430868785862969,0.04935126963908123,0.05795491709944754,0.0600520709839329,0.06044772344908479,0.059450300989090064,0.056403520227294626,0.0520804726811342,0.048350684648319736,0.046341448687011184,0.04523408077013835,0.04280315374300575,0.03697948817255195,0.02736412920776275,0.015929823463682442,0.005806616833498675,-0.0011307081549486071,-0.0051413201699100665,-0.007470644133053794,-0.00903960604044762,-0.010387581866366614,-0.012349169859542736,-0.01570748106982829,-0.02030753635004898,-0.025344375667706875,-0.03017854946173426,-0.03448526972229828,-0.03806946849820659,-0.041048215519197295,-0.043935376577009765,-0.04674517441426723,-0.048249000875030125,-0.04667246351320818,-0.04097004827511827,-0.031555425268158986,-0.019798174248954768,-0.0066267792239471535,0.00793211332734423,0.02381672400794685,0.04029179634726236,0.05649635186717635,0.07227486185551434,0.0882701923485806,0.10546486002420712,0.12467165114081823,0.14594939644438637,0.16828634498186745,0.1898181611239267,0.20848169740006406,0.2229026308712529,0.23285480304620623,0.23898472095242648,0.24194487928339953,0.2413139544518962,0.23543259013374876,0.22248739905502693,0.2017558208277994,0.17399855892481542,0.14067742907954306,0.10311218990620258,0.06260864388518411,0.020671295232145746,-0.021140316660007125,-0.061039551739234005,-0.09683165713091642,-0.12642964990897904,-0.14862616883218407,-0.1632068161564525,-0.17084037285085343,-0.1733153478206787,-0.17279701773156253,-0.1706087509353733,-0.16750943844998295,-0.1640233217716856,-0.15975453062768055,-0.15322594130809195,-0.14265838807041023,-0.12729215929941423,-0.10873194698527759,-0.09106913211554572,-0.0790403134431704,-0.07515397119535781,-0.07784384312358175,-0.08217993509567163,-0.08291011777729221,-0.07742277396409791,-0.06633376975020852,-0.05233083226906643,-0.03859169015906881,-0.027140577805446618,-0.018301631556296594,-0.011539115523669295,-0.0061416870235114045,-0.0013269916153010562,0.003690859784002992,0.009486658109717445,0.01604536157030812,0.02275234657356773,0
-0.026035416362236854,-0.021928068014941855,-0.01667774562322784,-0.014099048909371074,-0.01635393955374692,-0.0230238925315284,-0.031056190644703222,-0.035824718104078945,-0.03361624362478884,-0.02324578394298264,-0.006040899440712025,0.014297488665483863,0.032494378729132016,0.043847328546929666,0.046406825197923975,0.041902746411640095,0.03453999448922735,0.028197073054060662,0.024362095084642536,0.02232657185448213,0.020973484491362125,0.020267886838642515,0.021075737772722584,0.023587912568703195,0.02626416696217302,0.026715732635081244,0.02352621569718132,0.01732679402654673,0.010210576661294579,0.004130108476870818,0.00021018640645844005,-0.0009511684854564767,0.0007829092102395151,0.004859462811790569,0.010056062618538305,0.01513512955368896,0.019877777536710595,0.02530568807653542,0.032143890576986446,0.038581304575474484,0.03918730097624749,0.02618833771841621,-0.0053783284331951516,-0.048657656402427765,-0.07775120035787396,-0.05141959864716416,0.06829663932918946,0.2888872085797187,0.5666332235322102,0.8090216571142163,0.907644197256612,0.7895990974091404,0.45825180317408565,-0.0022807581537028013,-0.46247326865318217,-0.8039149201756745,-0.9660211314576552,-0.9578848182801536,-0.8348945307873774,-0.6619049449964631,-0.4861485692606063,-0.32986538823921085,-0.19856992619845337,-0.09312393785203801,-0.015497505763543945,0.033454269320569614,0.05804149720762818,0.06714556658211694,0.06955268689301053,0.0705716959792655,0.07193163478326352,0.07286546887414627,0.07189779238649933,0.06917558039977695,0.06664637540944629,0.06571795227208568,0.0655203437729899,0.06355150078006172,0.0574441401803009,0.045989811248709184,0.029744510599971886,0.01161370767908034,-0.004120080413569581,-0.01441979090670589,-0.019175551280692413,-0.02040619252853835,-0.020532534857168737,-0.02133172385789985,-0.023713715188586556,-0.02808509937303849,-0.034303010904507825,-0.0410325425778385,-0.04594365286858799,-0.0471594993747819,-0.04453284147526044,-0.039275345665801924,-0.03254825600483618,-0.025112737533749104,-0.017960516231404385,-0.011835059193665566,-0.00600443696182942,0.0015443096297650968,0.012570211400138545,0.027751219353508032,0.0471823608886491,0.07051776838264279,0.09646946429686858,0.12286091137100241,0.14730747504378824,0.16833237556342856,0.1860489520269064,0.20153071946151574,0.2159145331215054,0.22999051536729712,0.24383430151498678,0.2565679819360533,0.2663543141818392,0.2705137040870487,0.26609607620847064,0.25110118329228226,0.22572778994572204,0.19242244479467546,0.1542679116686081,0.11299082984766007,0.06878813753976346,0.02229621075654358,-0.023967883793714458,-0.06646187228131392,-0.10244526688215178,-0.13103559855740213,-0.15284492579203265,-0.1686371806177575,-0.1786431548144073,-0.18315693377526746,-0.18290902412294277,-0.17890411253657942,-0.1728476552158894,-0.16709944344101996,-0.16296503978258933,-0.15953722190322828,-0.1548898081455921,-0.14778366535235352,-0.13813601709227086,-0.12683593507259047,-0.11531167437155594,-0.1044036897247466,-0.09353484070645014,-0.08181677758520407,-0.06977799330200785,-0.05916328971952292,-0.051186728008211016,-0.045413483651730424,-0.04005650619038215,-0.03303657196929728,-0.023524330947995487,-0.013097873691582145,-0.00448733368465656,0.001269269345908302,0.005441745472452207,0.009517884871019133,0.013815014299929755,0.01798177811529194,0
-0.02439885483316748,-0.019538433159675128,-0.01594121327523074,-0.01584123754786243,-0.019864862009816377,-0.027167939864193382,-0.03590405846529526,-0.043344509256735206,-0.04603696992916687,-0.040806463648339814,-0.026620866397629697,-0.005875805987290547,0.01619503924979483,0.033736327845273764,0.042649551456040824,0.04201831043284189,0.03469942122466557,0.026395295854079508,0.022546342501256103,0.025264319226011557,0.03292675137400117,0.041917674631553756,0.04866664353820471,0.051099984281766375,0.04870080707918988,0.04151758121327411,0.030147662576029913,0.016635368771157923,0.0042357675625038105,-0.004034479440641283,-0.006714293362636075,-0.004525576060570356,1.1337879411110058e-05,0.004233263223030613,0.006984922750801968,0.008713765541154585,0.010806182294180983,0.015189481534616616,0.023317822877806066,0.033971620827087455,0.040961392260510265,0.03337500770111015,0.0013286987743978632,-0.05334465221954461,-0.10742237366922094,-0.11676572332580144,-0.03320189818182545,0.16630483877843458,0.4532385575608738,0.7420331873001972,0.9158760981590693,0.8775664714025927,0.6007741012693368,0.15037351065284837,-0.343235185445528,-0.7421681498392527,-0.9586530337642086,-0.9811317381741798,-0.8597565119883661,-0.6682536150596963,-0.46845249329046496,-0.2945203224506905,-0.15745041537002974,-0.05765287402519063,0.007103856144064183,0.041301157383269414,0.05322328256266956,0.0535909815467874,0.05170148327296865,0.05245510184922927,0.05648408518024634,0.06223581188713369,0.06763608850815186,0.07056734183097478,0.06913732644879411,0.06251072944466271,0.051522229659445175,0.03830426162500904,0.025580695793424955,0.016017087688513704,0.010947835320721928,0.009138472285729365,0.007421743603117986,0.003086524114618445,-0.004482165838607126,-0.014285048952841016,-0.02463894084765863,-0.03354798528972074,-0.0393169078132979,-0.04142058013427592,-0.040836475863293566,-0.03923804706895294,-0.037809002866147766,-0.03673429918693355,-0.035435438330566574,-0.03341454147602744,-0.030607309356645542,-0.026577214698719792,-0.020045543895726544,-0.009977593346160009,0.0029997292119074647,0.01686940002753317,0.02995574763295502,0.04247767935237474,0.0564261728464589,0.07358026901822567,0.0942461068086669,0.11778091745935679,0.14275935690634123,0.16665681100244933,0.18680455434501844,0.20216388478015096,0.21371705071437783,0.22321089138800226,0.23208784557089077,0.24091581508948362,0.2485225882565555,0.2518605478931944,0.2476556062613681,0.23437661368120455,0.21255223837070755,0.18352671375553523,0.1481688849174187,0.10675829650305663,0.060201264408978154,0.01115696925249874,-0.036266518298273834,-0.07779480165113262,-0.11057028487716691,-0.13429697159125825,-0.15087228047570814,-0.16298944035942825,-0.1727801429421385,-0.18069404672594477,-0.1854954404596696,-0.18574792651865785,-0.18118544384601315,-0.17283880366817944,-0.16231244694169605,-0.15093998495841163,-0.13922727479212,-0.1271131251748584,-0.11499253191110327,-0.10396380512360927,-0.09491378446838143,-0.08775340195658297,-0.08125479103270038,-0.07385545731213414,-0.06504477830270153,-0.05527969971083407,-0.044881248037377516,-0.033970732843968746,-0.022971759559411987,-0.01288412069238494,-0.005319811077791739,-0.001584595990304142,-0.0011872465263915617,-0.0018554968318566269,-0.0013283753708617022,0.0014717148705721793,0.006549277375960821,0.012822686633239627,0
-0.019391365533822768,-0.018457272676368902,-0.015644753270709508,-0.01199157099517383,-0.009109745975152987,-0.00924006736984465,-0.014212907754574873,-0.024327123492725686,-0.03687325223123112,-0.04548224228602617,-0.04304077930188728,-0.026777995732920293,-0.0008081766332809889,0.02574692864572362,0.04364530681540536,0.048800665983037596,0.044042042427168415,0.03603118299615974,0.03077061589549289,0.03093063685424908,0.035683641543742296,0.04234160362010109,0.04827632450956768,0.05183847056792196,0.05204640454478144,0.04813185924646967,0.04009759082329466,0.029389853028645812,0.018385314722434362,0.009427124508134713,0.004124833730861788,0.002864199218565026,0.0049534545811861525,0.009094872833242175,0.013762443008753112,0.01819794679280672,0.02336543646200571,0.030942431740423885,0.04088221124980872,0.04956065412503473,0.04966364719141717,0.03288973248301087,-0.0040696987279157226,-0.05140256305970688,-0.08074150651250012,-0.05089450213452755,0.07201208235835634,0.28868628688308096,0.5503398498772665,0.7646265436513989,0.8284695772849446,0.6771846429378579,0.32319599442344893,-0.14142578938138933,-0.5833203877370092,-0.8865053972512018,-0.9981623172136465,-0.9376017614832113,-0.7696308464680448,-0.5650878545251317,-0.3733620609679087,-0.21654812556459085,-0.09835188359505141,-0.015438315193860137,0.03654349611478408,0.06283470335673792,0.07105573910872409,0.07034544238509575,0.0681160041727156,0.06773146291769015,0.06919968509846142,0.07111010352426914,0.07216598123509803,0.0719850255489415,0.07045824236139195,0.06662726302053976,0.059169049286691644,0.0480819968313462,0.03535745138081397,0.02394438672001956,0.016018423246933,0.011781270902977436,0.009675359877964487,0.007496621861879507,0.0032401438696662357,-0.004081532094712974,-0.013715569577885873,-0.023708489504532443,-0.032256349809016135,-0.03843806722300704,-0.041883141208991316,-0.042216493048877486,-0.03948456683876648,-0.03460302124717743,-0.028647057012864626,-0.02226565672144083,-0.01608865758387731,-0.011014300742706888,-0.00743586704405245,-0.004276345576088899,0.0007383463616418078,0.009666892623688996,0.023258819212820844,0.041110721010492984,0.06217975224372332,0.08474271121875927,0.1066093067005192,0.1262138882276186,0.14342192109661267,0.15866920079438593,0.17165899667462028,0.1819364285322994,0.19013072895202252,0.19762644996843776,0.20550790555584697,0.21369135870873968,0.2204062019448101,0.22272011201598285,0.21785884455073007,0.20456244758735548,0.18340581177407492,0.15571326523129042,0.12284045443945049,0.08641941968902508,0.04847767270316182,0.011057651803230054,-0.024609799274038363,-0.058314628296820915,-0.089772018048579,-0.11790796427282547,-0.14138220301349677,-0.15904140703733463,-0.1700514986790491,-0.17455370774439316,-0.17402549467593603,-0.1702533150188155,-0.1642763884517502,-0.15668843165428917,-0.1483042097048707,-0.1400093451620191,-0.13221432005867279,-0.1246650298937596,-0.1167110762415481,-0.1076861613640418,-0.09707217116666793,-0.08490758500419339,-0.07235928378745855,-0.061235842895001155,-0.052598254102565495,-0.04612930079504499,-0.04075153272121771,-0.03527906992169398,-0.028616543657352285,-0.020241388413970576,-0.010701672727731343,-0.0013865301956545624,0.0060775794404920695,0.010411621312194745,0.0112843556220724,0.009876092073333419,0.008825688946047228,0.010685730799084452,0
-0.013714865862679974,-0.01244872177833047,-0.011533943627896873,-0.011928040607457661,-0.013725631318142114,-0.0166135537558249,-0.020383295301771503,-0.024903321340728146,-0.029399897860387485,-0.03208237522827527,-0.03028556527275996,-0.021395567646374253,-0.005406899957660143,0.013568635374504256,0.029620055357330782,0.03873795248316983,0.04083075011888012,0.03934109864212074,0.03854247188794276,0.04046903609020919,0.04400389659169075,0.046325905840195095,0.04538697923385367,0.04171795094045427,0.03784354687003807,0.03560564190782345,0.034359559500405146,0.03211804844509975,0.027857503579514147,0.022059833404864466,0.016081105624015806,0.011812845600003563,0.010757197476807442,0.012958944164544049,0.017061117232062495,0.021327754719235016,0.025176708680107036,0.029775814735697074,0.036413670261187345,0.04355247430253116,0.04531183869275874,0.03365071594062703,0.003911229680657416,-0.037865323961795,-0.06953487667066119,-0.05553529899499878,0.0388855401650996,0.2250367520224978,0.4708090716618155,0.6984189012045203,0.8084785359846645,0.7238663390479848,0.4316681226525917,-0.0018341091476944404,-0.4555810720211835,-0.8067056602450668,-0.981187157264549,-0.9744501599897709,-0.8365982469843949,-0.6376011946231361,-0.43552710036783393,-0.26283177316896356,-0.13009225703505367,-0.03674097199760376,0.02162227877700497,0.051943540605756136,0.0638530550099362,0.06746806217885329,0.07005444925109947,0.07432550402777713,0.07895197242155859,0.08082666991943896,0.07828566717082375,0.07277411741796737,0.0673515164255023,0.06399614389687569,0.062389526387157196,0.06038809541656742,0.055222069931283986,0.04516202490915301,0.030877783356213134,0.015340454159370447,0.002360505042387724,-0.005363291014613877,-0.007633077487209079,-0.006849773648717149,-0.006453730712355227,-0.00848268909940695,-0.012874564952251432,-0.018911949716148173,-0.026141597207871625,-0.033821861898271584,-0.04024339917726972,-0.04338475149097265,-0.042386049515214,-0.0378699280619647,-0.031096372901735853,-0.0233669190911403,-0.01572518717290746,-0.008071550290496252,0.0010332957627014784,0.012492285649727581,0.025611324135357244,0.03966786385951681,0.05491815378380552,0.07158373867538483,0.0891429658833272,0.10691598978839946,0.12461429167013033,0.14182897292522087,0.15754641368276415,0.1709460051943722,0.18219538302810964,0.19214501606086465,0.2014877420983883,0.20992042623560278,0.216102293870532,0.2184098465632237,0.2152473184054712,0.20518023835563387,0.18783243223681725,0.16428954046122587,0.136081935358688,0.10409578455851688,0.06860994933455394,0.030410992809509693,-0.008314832106425835,-0.04469834814970493,-0.07681976600487019,-0.1041090390340243,-0.1262597680330747,-0.14294770454752775,-0.15475087270101373,-0.1627556280835433,-0.16692048219402714,-0.16644168900600553,-0.1618514325877174,-0.15527391763961956,-0.1487579232598966,-0.1432369826341336,-0.13850838973895038,-0.13325521621037006,-0.12549028580430385,-0.11416072946896069,-0.1003646142804361,-0.08652444161301537,-0.07471844699309083,-0.06564673702629098,-0.058515068582217805,-0.05183417364675441,-0.04452916642119143,-0.03653127311608249,-0.028432873478477075,-0.020714012961731892,-0.013455149349372631,-0.006556660704446861,-5.599895685586692e-05,0.005676245748894568,0.010174695473348264,0.013411291250145719,0.015784789410883952,0.017656167834768362,0
-0.01442675461996327,-0.015063956359357646,-0.013928906458482618,-0.01057463981726102,-0.0064510458040048565,-0.004478194709269424,-0.00709152528533961,-0.014715080542296652,-0.025386823719313802,-0.034708724668405584,-0.036895328515365824,-0.027967921799690917,-0.008904774943184252,0.014379597809978419,0.034313153305820694,0.04563328397318178,0.04741274865804568,0.04247197724769172,0.03539556071504564,0.030294334028836037,0.02934991280433484,0.03307852337809768,0.04090520691476443,0.050512839732156235,0.05769904564577284,0.05824838742277028,0.05056237360189033,0.03693396545454396,0.022111503286888518,0.010553633689327865,0.004754627662256153,0.004715586158775802,0.008568384143962075,0.014141575940278827,0.019704978392626193,0.024107886766557864,0.02750937162380506,0.031704492446417896,0.03884422408148705,0.04850082227889559,0.05486261339442038,0.04800303137524686,0.020860274621389757,-0.02175857782845159,-0.057341679438207165,-0.0481088443056317,0.04339054333148782,0.22906696956162903,0.4751173001856207,0.7016763840857543,0.8084557288754655,0.7189683423961096,0.4216937072000006,-0.015980916955978343,-0.47257550827018674,-0.8250923931784482,-0.9996550784584423,-0.9927078642596124,-0.8554862740812526,-0.6577835018552024,-0.4564193545285955,-0.2824123704959947,-0.14526587888333492,-0.044690105521534844,0.02153589297841913,0.05778864428356413,0.07262654904313547,0.07636286080821578,0.07694483278668754,0.07852699419733436,0.08183814063987813,0.08516066412333703,0.08623235097551406,0.08380564079298353,0.0778846935641597,0.06954190140766103,0.060612156548636144,0.0524078507733159,0.044510408507719736,0.036009771485061376,0.02751625788023019,0.0206503580116608,0.01620042964614058,0.013517815591463261,0.011101792503430678,0.0073112245773105464,0.000919916414426453,-0.008347998779357511,-0.019329002857487985,-0.02952638732006907,-0.03655869807942915,-0.03981295069527631,-0.04021387885942235,-0.03883071262716622,-0.03637285061074562,-0.03331574735124703,-0.029762864468259632,-0.02537328013809457,-0.019723461815035905,-0.012687433562274,-0.004021664755910016,0.007203309977030645,0.021783592471315068,0.039146776321899564,0.057894231667251196,0.07694341960851012,0.09523956722687704,0.11171362910764722,0.1263071087833798,0.14011131929506415,0.1545646048730408,0.17033923534750128,0.18631325606385832,0.20021721542638637,0.21053304201407305,0.2171197099010689,0.2203056488808418,0.22021107184702804,0.2164750324160233,0.20792325439084178,0.193113493554472,0.1715023129222551,0.14367460095577336,0.11071124577316369,0.0739283454087142,0.03495058847371004,-0.004702841950496424,-0.04374344124750471,-0.08032830801853885,-0.11196297392037216,-0.13680049261545357,-0.15446412722538805,-0.16553417049951077,-0.17100737541750316,-0.17196835901767352,-0.16928265973094003,-0.16398660490218986,-0.15757781153795736,-0.15123372927997722,-0.14499606184213906,-0.1380183860859143,-0.12959039771838898,-0.11969789455516472,-0.10869578756999453,-0.09706536526860068,-0.0854956417605977,-0.07493130755664364,-0.06642683825863689,-0.060429487166667184,-0.05610021385564386,-0.05174303730073037,-0.045714689884789626,-0.037043073662315004,-0.026263559135016403,-0.015586730856881604,-0.00727866030315253,-0.0019879915061473304,0.001280612058182102,0.004121297980322163,0.007711169443567062,0.012394315448414246,0.017932268372302787,0
-0.01941570298310606,-0.016360391943989028,-0.013097138046917376,-0.011855350711612983,-0.01397553220974684,-0.01956077221339861,-0.027429162588715618,-0.03574710004179135,-0.042520860600102184,-0.044837927108912205,-0.039026732911586995,-0.02336682470967386,-0.0007289412259288223,0.02210867188632474,0.03840193640146243,0.045209887910546434,0.0442200522610775,0.04003516434786693,0.037114622363529186,0.03732421078028766,0.040108037264860646,0.04399856472126343,0.04763142306870718,0.050033109663671416,0.050096323238470894,0.04647007284658352,0.03883737020957717,0.028804449158951737,0.01887635741039993,0.011093839554263393,0.006809072278306801,0.006470814835681854,0.009443960588837742,0.014858746768030853,0.022015307325030174,0.029776204219433798,0.03681278761496557,0.042764131210020026,0.04807500647000197,0.05172084014632885,0.04918488159869984,0.033708376742783826,0.0018356299666185691,-0.038440515125160064,-0.06206861710665984,-0.031012461736407343,0.0882990307475407,0.2993807949883695,0.5563524609021118,0.7675019594752743,0.8288479773940369,0.6746590319714607,0.31607193563917646,-0.15606692985574078,-0.6080503380130201,-0.9215192545753357,-1.040433659364944,-0.9818912761247758,-0.8106660564448602,-0.5989980044070851,-0.39788842947901426,-0.23118309781552315,-0.10446624324318866,-0.015578191504913366,0.04011594540958667,0.06931900869783902,0.08080769911423952,0.08319236676831437,0.0821033599023451,0.0794743780137215,0.07559211192448015,0.0714527641438,0.06882530884500374,0.06894977110339537,0.07158380882194645,0.07452678295383662,0.07415440687489185,0.06757450370244326,0.054959338058770894,0.03967965876861761,0.025875026016559322,0.015818864478561043,0.009405197892062222,0.005163783211583672,0.0013666831989032919,-0.003040118440891113,-0.008346205541048998,-0.014629207151695248,-0.021751594073972178,-0.029125530088928507,-0.03568482892716329,-0.03999043883346032,-0.04105314519809581,-0.039222959136821375,-0.03565494216807375,-0.03134883865361643,-0.02692533571786565,-0.022158748868594615,-0.015732414004835663,-0.006346273512841223,0.0059977510442871,0.01993880803545011,0.034045226994961514,0.048235427280617596,0.06356275082672519,0.08078546510422106,0.09969133565980558,0.1192112978007466,0.13752901465446715,0.15284701723973718,0.16493522091861104,0.17560522949904012,0.18690363754583622,0.19913369243799847,0.21112457899184908,0.22136717506091658,0.22805189709173868,0.22892033642834816,0.22204389217761644,0.20677092358113036,0.18384511074322696,0.15508197906533983,0.12269005144033907,0.08795425739355953,0.051146873047889375,0.013123412076416083,-0.02428194391033929,-0.059472944330932254,-0.0915347053497429,-0.11956870860725922,-0.14227084026135978,-0.15828074284228583,-0.16711212769588404,-0.1699009799309927,-0.1689766671881539,-0.166465437283536,-0.16330555328333574,-0.15940197550965596,-0.1542688239654852,-0.1476557314378843,-0.13981207750212846,-0.13105591805606334,-0.12130116953822793,-0.11012167859720313,-0.09747002398251332,-0.08446270673153926,-0.07291684178290482,-0.06386073935305377,-0.056788474372656036,-0.05034361024180647,-0.043467423040374015,-0.03590986895124854,-0.027747764746159462,-0.01888295148314475,-0.009476360838807759,-0.00044705375506058284,0.0068338520539317354,0.011325922369957064,0.0129499399317935,0.012573937682298666,0.011535547800425493,0.011367924307533219,0
-0.018726842893992034,-0.017411765340195905,-0.016384168838085557,-0.016079426614664542,-0.016783920776338054,-0.019469446661601,-0.02508706540001008,-0.03302791295551749,-0.040973744903464254,-0.04576688704853594,-0.04405831693284536,-0.03369606601712844,-0.015769501602138133,0.005043677263087881,0.022528849849598197,0.03221117670524613,0.03431663266944436,0.03384234894776727,0.03674991769080177,0.045463397041732294,0.057060306965236215,0.06524801613348058,0.06517236739711271,0.056845371776409116,0.0442117867050145,0.03196125503733411,0.02279491815688489,0.01658409764833291,0.01196982451937613,0.008262545836077675,0.00568469997334737,0.004851376854217096,0.0062313904236174205,0.00968113027644073,0.01482019409902841,0.022039518282259404,0.03255838977907573,0.04728672056874692,0.06525616325937018,0.08133057774422461,0.08537693438378688,0.06684200459943976,0.02313898564290581,-0.033439262040389856,-0.07338335238586832,-0.05559278840076758,0.05529327337783835,0.2644385638962092,0.528909556004708,0.7595586124133045,0.8498337688314272,0.7247915075106562,0.384428593226565,-0.08742643372481197,-0.5572838665187032,-0.9003925323244614,-1.050182878895825,-1.0140439666404235,-0.852388065215995,-0.6392362429995478,-0.43081914562752754,-0.25614780005028065,-0.12401563966280577,-0.03340323176448885,0.021272185631081138,0.04950696296650876,0.06287501298175342,0.0708757937391684,0.07826233177260386,0.08535610629471668,0.09023022785179349,0.0913204798808484,0.08872802072752392,0.08390032323112936,0.07850243228540615,0.07297910738493836,0.06633320499599928,0.05775225950949511,0.047910189580590234,0.03835039214770042,0.030163788542752402,0.023549611209297265,0.018033377459493082,0.01282888072058644,0.00728680378184656,0.0012803133451848615,-0.004784018905338947,-0.010577970506136476,-0.015964460391623254,-0.02045438972127166,-0.023841540395548737,-0.027008400861735102,-0.030698922366345763,-0.03419046585540274,-0.03614950122263884,-0.03576856167727789,-0.03247618742930703,-0.025866172693219325,-0.016321973521853165,-0.004692591790177755,0.008269585197701311,0.021472475910975734,0.03387574594220659,0.04611290487454456,0.060155078407416754,0.07687903682529044,0.09518356277800163,0.11324662346670994,0.1297589218483236,0.14421487724090215,0.15659482273636272,0.16714349457104777,0.17652488308885386,0.18574140607033882,0.19527766934696153,0.20428203746228238,0.21090807126088956,0.2132627430016118,0.20983222010433997,0.1994538473872091,0.18130072545052667,0.1552523892609138,0.12252752975362702,0.08547317578473784,0.04670393474806528,0.008698510218670408,-0.02654049855629325,-0.05800046132729241,-0.08557553485019842,-0.10918563958939373,-0.12836023981879593,-0.14297228734698883,-0.15358741470945525,-0.1607968093170731,-0.16446224780782237,-0.16386236097962642,-0.15888730803053885,-0.15064901186780347,-0.14106654720975859,-0.13216962022108011,-0.12481479753058936,-0.11803286361787262,-0.11044281165440666,-0.10171886829185384,-0.09220885053131059,-0.08225568260235724,-0.07248523069405029,-0.06365002324909803,-0.05568343909836014,-0.04786857018917962,-0.04004614474471532,-0.032607201395314464,-0.025546559235308304,-0.01855813879615779,-0.011541488147790671,-0.00440201056752465,0.002950135391402646,0.009739816337124924,0.013988718532361798,0.014430617417692526,0.012734801245965117,0.012527534436655788,0
-0.019765729315003172,-0.0190774055424941,-0.016230505343314893,-0.01230246344176621,-0.009348363540175864,-0.009547237614908954,-0.014030945073278886,-0.021626649289387637,-0.028583111974634305,-0.03001326973323239,-0.022029661059802814,-0.004160728522292027,0.018826421092032055,0.03856815090906317,0.04818305416522477,0.0461430332989959,0.03628667979633544,0.0255211568368484,0.020031144191855216,0.02148410686686048,0.026991622489624924,0.032647026685735374,0.03627301789104312,0.0371356504014342,0.03458609886455409,0.02845469158993437,0.02029059189131918,0.012747803210628156,0.007796231274080692,0.005996113113670212,0.006928438875704899,0.009851272978039555,0.014012113523892027,0.018470672296206185,0.022385426107120517,0.025975625098674526,0.030379172925783123,0.036175361667453027,0.042399993810091685,0.046184373810495984,0.042458697227370806,0.02580833454877646,-0.0037325722264177647,-0.03365833404506319,-0.036360352252903905,0.023957266433096983,0.1731590256315797,0.4034931164576883,0.6581776239568001,0.8404392837523916,0.8522667085691309,0.6451690011896112,0.25146785813613826,-0.2241443079544449,-0.6500143886357305,-0.9254490962947219,-1.0169425088787865,-0.9546203857345158,-0.7998428309810328,-0.6106149622636114,-0.42466169102912665,-0.260732077373482,-0.12723447675711552,-0.02878910042181547,0.03326467964829973,0.06371852859888921,0.07332524244030676,0.07379776278746372,0.07259337683203412,0.07180575206128553,0.07073208416279153,0.06877860910717418,0.0661080844928437,0.06290557386276877,0.05949080248091005,0.05640917266010669,0.05342599254897551,0.04930705039125892,0.04312463116695321,0.03516348376624738,0.02647955390675835,0.01825730715490161,0.011551994103993355,0.006818456937893964,0.003611029028592016,0.0011394523253874002,-0.0011733989389288244,-0.003923879113260384,-0.007952813055243112,-0.013742486595002375,-0.02074541287667662,-0.02757338859037558,-0.03265231087801232,-0.03479866402400799,-0.03358049153579248,-0.02943194766768245,-0.02353861466405104,-0.017344850610931335,-0.011735738973955974,-0.006404739859884404,-0.00013641389738499959,0.00837468119971787,0.02017792268889518,0.03546132758025246,0.052686227797261606,0.06973838973424511,0.08633216819862775,0.10383048454845073,0.12267323409646531,0.14120113360850184,0.15701397245844623,0.16899475137420378,0.17809344518207532,0.18629025766639093,0.19486171574553124,0.20367893119930405,0.21170262012301708,0.21723903826673932,0.21781829597309377,0.2110991153527051,0.19625416811384838,0.17399388101928898,0.14550410625259183,0.11181482532138476,0.07433158944257759,0.03566274563613953,-0.0011031603776047588,-0.03416942794231026,-0.06339796128983904,-0.08936433541739272,-0.11249452313486907,-0.13237480911837274,-0.14790261313559946,-0.15836482526866166,-0.16407343454710005,-0.1660788481284537,-0.1653658311638776,-0.1623194662107182,-0.15704578845066755,-0.15012016874093803,-0.14279203932021814,-0.1360206592804937,-0.12947548563943237,-0.12216109430695363,-0.11351627771422604,-0.10337257388751998,-0.09180882932976527,-0.07938585983919651,-0.06686070861238848,-0.054814479648948713,-0.04390788056940812,-0.035007539053683964,-0.0284349261513574,-0.023287993002726784,-0.01810315520295132,-0.012052543472072113,-0.005163797413651545,0.0018268734487422826,0.007371696763638566,0.010155594298976087,0.010661987805505549,0.010600059250719867,0
-0.020440002962709855,-0.0186667392903495,-0.01784736928549041,-0.017897500207868833,-0.01848264485110187,-0.01984151581495639,-0.022465448890248364,-0.025582088837938464,-0.026384150866869637,-0.021154196084774108,-0.0075879294591753525,0.012738162744607583,0.03381542525461864,0.047810312317369486,0.0491990395340269,0.038573843607477454,0.02331919603129763,0.012860341966236536,0.012351290744500903,0.020643121179928312,0.032888899909544196,0.044136018623143224,0.05123958222993089,0.05306863040472876,0.04995514228803469,0.04286580505988325,0.032689526057204155,0.020381560871713188,0.007849163668527644,-0.002023665941137587,-0.006877860088199777,-0.006390911818395822,-0.002419810865107639,0.002359669639730072,0.006294452416182236,0.009326216352605738,0.012347072785207972,0.016681071475361974,0.02327051763505307,0.030753135888913725,0.0340698844149208,0.025955643422815883,0.0019450881547799156,-0.03183111921635122,-0.05211074141369251,-0.020873360485488955,0.09868082345695686,0.31662039363067385,0.5941951310078787,0.8416343043770217,0.9467998548048598,0.8281503009981732,0.4827235748891228,-0.003672075083071359,-0.4928018954506862,-0.8563052021316115,-1.0280780457043863,-1.017997877914187,-0.8860277469609001,-0.7010945742943249,-0.511876217340847,-0.3412523030551657,-0.1973467780466173,-0.08504984592470101,-0.008278160007762853,0.0342081673843625,0.051187619838829065,0.055606084128720125,0.05839440793190559,0.06435506365094823,0.07243322343764835,0.0792268097894846,0.08198604837214024,0.07934669630377678,0.07163622671447402,0.06125294092820052,0.05169681270080753,0.04550491525554027,0.042815641601134505,0.04163504743112453,0.03934739322957964,0.03459510593770843,0.02875776878085756,0.025101061219459427,0.025342969594295953,0.02680103132136013,0.022648223448635305,0.005976993780497649,-0.024181476673624233,-0.060411783784229275,-0.09121251908830476,-0.10814621354324658,-0.10987788427201944,-0.10124572223000036,-0.0890583303088896,-0.0774075579128586,-0.06613937678266846,-0.05345871218117052,-0.03881229652876426,-0.02310626626984147,-0.007406378394295197,0.007896808685437993,0.02280554790986415,0.03736730366509267,0.05223997483512159,0.06897420000687149,0.08914105969745444,0.11332322831218998,0.14058500756295295,0.16859549896387052,0.19483494266606668,0.21782565398891704,0.23709262016182098,0.2528435817430099,0.2660082325742167,0.27769126096468916,0.28809311515518143,0.2957814885652256,0.29776199435995365,0.29056214781525236,0.27194238498745177,0.2418938846240074,0.20238959884224386,0.1566426000983561,0.10790862373540461,0.05836921321646006,0.009505129659156626,-0.03712459244286519,-0.08010108848133546,-0.11819052963090189,-0.15005000375444866,-0.17455166432107183,-0.19112240657131874,-0.19963970909331763,-0.20055991072334525,-0.19544611788918695,-0.18714003338610374,-0.17891246131115562,-0.17301202525305412,-0.1700321122714101,-0.1692216733250364,-0.16846204232036133,-0.1647726918545639,-0.15635218466740677,-0.14372491183880085,-0.12866370062422697,-0.11284555296949318,-0.09741849911804018,-0.08324032615551501,-0.07114505069690905,-0.06152862633368139,-0.05388526036940451,-0.04719996142920267,-0.04056009286393017,-0.03343365572452845,-0.025786574046874202,-0.017746803780177678,-0.009236096077459625,-0.00026873859725109334,0.008844079772752974,0.017675654511702707,0.02556322227288216,0
0.005197848729177728,0.006723696539239392,0.004999010868472234,-0.0009329205233640611,-0.010100945721748593,-0.02015236539228019,-0.029053336435544093,-0.03527780226379571,-0.036584503307905004,-0.03033197775057469,-0.015645596671977742,0.004745758073967637,0.024685650364253412,0.03757629830264844,0.04034955852552542,0.03516893804726448,0.027949250278896647,0.024845333463629205,0.028513345080834227,0.0368427315341638,0.04526945969828822,0.04994803216672677,0.049118578378474914,0.042949132072248764,0.03295063325429129,0.021358481479207977,0.01070862461971946,0.0034192820268655263,0.0006732811734228615,0.0014237039945899505,0.003260662473124831,0.004355196107727486,0.004166315375107637,0.0031140094290543945,0.002502648019282786,0.0040543239826978435,0.008914171032224086,0.016926254911592747,0.026087219531196287,0.0320138500984936,0.027793511208017752,0.006119881922562562,-0.034279004509145346,-0.08020942746392334,-0.09962748894657734,-0.04807781015553909,0.1100275316231712,0.3718187886964734,0.6762296841485242,0.9126959906550846,0.9639336080213192,0.7651431863513913,0.3446404663881851,-0.18134512844236966,-0.6601066255398504,-0.9711482043476408,-1.0705713460518322,-0.9897226165829532,-0.8006247083873053,-0.5762997339683318,-0.3671061514798136,-0.19774894274789045,-0.07575402852196539,0.0006537294552770231,0.03977197082557438,0.055078319548696526,0.0609232622690201,0.06646290666028504,0.07328771394163258,0.07849316510861282,0.07906775237910776,0.07441332096392533,0.06668546385874331,0.05914575984435231,0.05397336085551304,0.05128530490871215,0.049476754176761784,0.0463701618337713,0.04057279646088454,0.032133846661998505,0.02210606454061331,0.01151049689101589,0.0007457122654530128,-0.00997778529847708,-0.019764849508375187,-0.027019120480975864,-0.030712046058338358,-0.031514774556574796,-0.031603854010908296,-0.03319612175640623,-0.036859302259737776,-0.04135474167566452,-0.044682838990122896,-0.04508294299307663,-0.04208375656934239,-0.036717424362660456,-0.0303456118551837,-0.023712506712098694,-0.017018366873515472,-0.01011917694171437,-0.002218862818535186,0.008404047394296007,0.02354094472785324,0.0432621650451811,0.06538066096649663,0.08723041712143681,0.10729802749552214,0.1252226227920318,0.1417165087885896,0.15808705536131903,0.17471041029594445,0.1905973285862235,0.20442710717523893,0.21544357572766668,0.22384005419737452,0.23040372820250518,0.23546366224077236,0.23801346621199995,0.2354115683909264,0.22410060350974687,0.20182545586147285,0.1695740371046435,0.1311314497711796,0.09110147901901261,0.052906602617418357,0.017432264680586895,-0.016795740598172584,-0.051591425555312334,-0.08669617798526713,-0.11934167702116025,-0.1462797362954939,-0.1660299896374776,-0.17914393756604355,-0.18669484160787592,-0.18892287466744825,-0.18542119994313824,-0.17632599935479518,-0.16287504759251256,-0.14706589309876103,-0.13139005177467633,-0.11823760305565856,-0.10862200219360953,-0.10186347593709452,-0.09649447699384497,-0.09098883880098736,-0.08444753849461509,-0.07699562491084246,-0.06890639665521553,-0.05979031260793786,-0.04937278213509616,-0.038591441831593215,-0.029174267135301413,-0.02215037307518899,-0.01719148179989193,-0.01334646007492072,-0.009825528033000682,-0.005968755378692646,-0.0012385398912753316,0.004175201797867213,0.00898702079030798,0.011460907642784707,0.010976797789196996,0
-0.006375509701466121,-0.008937578987658288,-0.009668472515798492,-0.011584433098582765,-0.017063231389648124,-0.025941164445796545,-0.0354747784571092,-0.041428230827797716,-0.04003271033076296,-0.0295000212736762,-0.010538947294083934,0.013248444375610154,0.035715010390245244,0.05030192000876474,0.05310172126922732,0.045100501522364445,0.031931273540457675,0.020790867447949883,0.016831998562626016,0.021371520234496323,0.03199317808227193,0.043754305749017466,0.05109587478760829,0.05041549116362806,0.041983079855917385,0.029391233277010494,0.017235971808836067,0.008800569055385952,0.004846808091400016,0.00400953090902015,0.004084605051837293,0.0034821719833058647,0.0023091576603810286,0.0019270362707540034,0.003304393491173162,0.0063386588318279065,0.010825242272138925,0.01706671090036182,0.024702168310902006,0.031092138436976086,0.031200465723257846,0.01994333858657066,-0.0028809291921724186,-0.026320114555779817,-0.02449295576739397,0.03824633829524704,0.18985057593253366,0.4264610854508844,0.6949974021899563,0.8984643934483537,0.9319170964702685,0.735473437345024,0.33270911160227695,-0.17184461151355804,-0.6378133269351294,-0.9517902954719869,-1.0703242970653488,-1.020577994214138,-0.8675757709812473,-0.6754395076352779,-0.48572863143191203,-0.3178696807512005,-0.17994331745360725,-0.07626012100387138,-0.007664289336551562,0.03093332793330513,0.050040118335484246,0.061190348018672354,0.07195200831920534,0.08364755882106102,0.09302888419092024,0.09638213829494655,0.09275979297484419,0.0843295027750835,0.07462411379938962,0.06624989885038746,0.05947555370656444,0.053158417775470826,0.04657683235891771,0.03949001709324533,0.03167479358586896,0.023492793829000047,0.015740536335597178,0.00842529416364001,0.0006881957142653074,-0.007967805690381843,-0.017103169721662696,-0.02568104626797343,-0.03255780284484956,-0.03720158321528232,-0.04011508098468182,-0.04226158512917694,-0.04426561739156467,-0.0461572988539229,-0.04733824073658584,-0.04668143523673,-0.04307201831869785,-0.036046940791647594,-0.026057958465860846,-0.014251015535018986,-0.001701776170923189,0.011461190264918814,0.02636008268176006,0.04450050307002891,0.06591827097598413,0.08856659221891702,0.11014844354878428,0.1301478681452057,0.15000057409843975,0.17157808913431852,0.19538261944758048,0.2199531057868689,0.24230278122235344,0.25874624705042343,0.2665689636659782,0.2656405009239178,0.2585204825653132,0.24910663895196805,0.24010145759055462,0.23073958599551914,0.21690454732779946,0.19369601811727344,0.1586920201527411,0.1136391138307054,0.06354703190150882,0.01431616945175454,-0.029665630206693334,-0.06695978714090195,-0.09865773930745023,-0.12650922612042134,-0.15102279989951894,-0.1709212735055356,-0.18432423867251507,-0.18995753918719788,-0.187688975287899,-0.17951861767567148,-0.16968800591900968,-0.16256377953166212,-0.1603857061334608,-0.16238866718303607,-0.16518956016273287,-0.16432794805315937,-0.1563198194334509,-0.1407732726962354,-0.12141426483822641,-0.10398692225198518,-0.09235546962049117,-0.08641440218544277,-0.08287449308473911,-0.07769030442208018,-0.06824420576349598,-0.05444280142330766,-0.038784572093712964,-0.02494994742321277,-0.015400585079961338,-0.009686295898728034,-0.00484991659578644,0.0023157129240092937,0.012924687731336374,0.025012446204190904,0.03474254447712302,0.039182866592289506,0
0.0009809162531408517,0.0016463486285196167,-0.0009611173575477079,-0.00737833461909098,-0.017109345522997674,-0.02855591305040781,-0.03970168866214674,-0.048334428306994026,-0.05131656255647337,-0.04488960203401881,-0.027340602802031523,-0.0016110125385609163,0.024859372456316992,0.04319574843806434,0.04776532230907833,0.039668711509750376,0.026266498595926266,0.016977262113677852,0.018091670850774677,0.029587350144823,0.04577462431088865,0.059068498018906186,0.06388498286196068,0.05813984861673484,0.04283767678815264,0.021696523660878396,0.000582769933956164,-0.014223242368701483,-0.018571734222562183,-0.012685581116796213,-0.0013166319859178547,0.008747587883542927,0.012264687279677744,0.008242604665201818,0.000267235759543568,-0.005810803858529417,-0.0050687268109191105,0.0044601884546588465,0.02111597851370763,0.039269911944902126,0.04939340304501417,0.04074056648328542,0.00778473320993875,-0.04175936861773233,-0.08138029879603953,-0.06823428755627482,0.04095346043868435,0.2620722161239031,0.5573606609327508,0.8309408573320718,0.9601447153402567,0.8545469385128633,0.5087024412671406,0.012387371006488172,-0.48935244428626623,-0.8615812022468422,-1.033063907473949,-1.011306895789912,-0.8580083438369667,-0.6476310243915518,-0.4367567822498402,-0.2565445643126766,-0.11997146221804714,-0.02950653405322143,0.020007057205573525,0.04016768437888072,0.04558850357004773,0.04846965178102067,0.05489976116414582,0.06461491227164859,0.07353557851752318,0.0776953110131912,0.07583031217251354,0.06926241244521233,0.06040329367672742,0.05152563639939977,0.044323628148505004,0.039587943348567585,0.036650839634781815,0.03353752266519888,0.028341721553623387,0.020549362441174803,0.010975893452450968,0.0008162987316235777,-0.008849331635672194,-0.01692457860335351,-0.022418639473112595,-0.024917374283295917,-0.024917338583572514,-0.02375546261842859,-0.0228286882186829,-0.022751006685207187,-0.02358528737486591,-0.02529759937689447,-0.02722234168158769,-0.027673393491508366,-0.024703163035478322,-0.017341318261048212,-0.0065347257276078844,0.005263550705170165,0.016003008472090643,0.025297380593428734,0.03399435081554549,0.04325067036362202,0.05382192679061612,0.06601763062844385,0.08015993485233655,0.09651609476169999,0.11477474650743079,0.1337501473914467,0.15167168211299784,0.16665933915646922,0.17723819121543502,0.18339744998457813,0.1868565525972726,0.1897013125566051,0.1931265330061141,0.19675120042220076,0.1982600555161144,0.19437997739488738,0.18282181021631685,0.16324879760705152,0.13634432687982975,0.10256998920217644,0.06290902454956064,0.020415381849504206,-0.02042655132626961,-0.05583756673522293,-0.08378526803549502,-0.10400845235452008,-0.11791164078722328,-0.12792202674127695,-0.13629418307603638,-0.14433027819430289,-0.1522798421881696,-0.1589403240988303,-0.16159497039304271,-0.15796074398270626,-0.14842953911418502,-0.13580671434503294,-0.12328998139951647,-0.11299774081599592,-0.1055295447531782,-0.10011650458491342,-0.0952524788187842,-0.08938200096647342,-0.08136224499178497,-0.07075479261797438,-0.05801213584209215,-0.04458183935110939,-0.03256673706955687,-0.023955350275603,-0.01985385735750989,-0.01981902421039181,-0.021729594975758083,-0.022561096200845683,-0.019634851365240093,-0.011856516201868915,-0.00040189524470703175,0.011667941214812023,0.020882861692804813,0.025295382964604138,0
-0.02023908952770176,-0.02518113133297435,-0.02476692216683658,-0.019779872929138454,-0.015077209028798179,-0.01598575483068032,-0.024095270983334836,-0.03603859729474454,-0.045509466047707704,-0.046176572105631364,-0.03451528272918675,-0.012239268545545936,0.013690374794771901,0.03484332582494406,0.045953956146601055,0.046388435191070776,0.03894092318444099,0.02842864079228815,0.02008409852318712,0.017658310162562536,0.022336893101869686,0.0325523351665242,0.04446088071967467,0.0531235632351343,0.05436554494902225,0.046804248665554646,0.03256280466479355,0.016117688031220705,0.0021269295581489737,-0.006615240831021154,-0.009885973449113277,-0.00917035228418414,-0.006080328341147417,-0.0014387695074382454,0.004049982142137482,0.009187641279004427,0.013616209772282374,0.018973315475984243,0.027038193808457116,0.036282379676682554,0.03985045715381041,0.026781257946812635,-0.011597813575974902,-0.07080498467775077,-0.12451782333764552,-0.12588227884134648,-0.023676066242668336,0.2068877575631461,0.5320027752860159,0.8506735462267137,1.0269049062444982,0.9539505199373172,0.6150210678082738,0.10039988870657704,-0.4325698995703093,-0.8331875630192187,-1.0211823706501462,-1.0059564902097344,-0.8577336210638761,-0.657655044661205,-0.4617235760330107,-0.29463581719733817,-0.16300146600907842,-0.06778737047421102,-0.007232522127115913,0.02467348973974147,0.037647361299427716,0.04162568305615768,0.043381471822862894,0.04584929518661776,0.049331965346218476,0.05293849842304642,0.05570618769180648,0.05718410715035725,0.057482795175198644,0.05654300452509879,0.05336384366392832,0.04678428903725351,0.03713786034453554,0.026324493041563292,0.016251507337485673,0.00793644423758268,0.0017474541557786355,-0.00210782474715418,-0.003440770169323268,-0.002730333330815099,-0.0015420018179038378,-0.0018699922799781665,-0.005033773270859654,-0.011067090515245757,-0.019074214410586043,-0.027496297948629737,-0.03387462511855077,-0.035405972799241785,-0.03064112671906548,-0.020903188998252623,-0.009586628914905882,8.394598104063521e-05,0.006356732047833573,0.009190910768171056,0.010627267168565144,0.014464958438487358,0.024277338418581672,0.040846257413543974,0.061665399925310144,0.08335147899368403,0.10378690060091308,0.12209095585493686,0.13798615848687348,0.1517563368384076,0.16427612625437873,0.17606857938084172,0.186539331191234,0.19492250919446621,0.2012704466211013,0.20605225854758502,0.2092150679721051,0.20946951851914772,0.20414496625648063,0.19035856764902287,0.1675079895359582,0.13836795404172988,0.10692716479623646,0.07536728487736848,0.042558129874230154,0.005166398636575947,-0.0380368139152404,-0.0821960085159744,-0.11788535953421199,-0.1374037479651117,-0.14010792923573703,-0.1328648518907849,-0.12575233887964313,-0.12574758926111035,-0.13269285018912486,-0.1408269376077822,-0.14446724684511109,-0.14231413488911032,-0.1368236660146908,-0.1306170091221998,-0.12412842951529704,-0.11645381896448322,-0.10825002208371444,-0.10335026613019954,-0.10614368997753847,-0.1164546247987654,-0.1271552163702448,-0.12706411311325547,-0.10751188592193539,-0.0689246674085937,-0.022606059446763985,0.01505572102861662,0.03234930008001671,0.02862545994558243,0.013196784329021057,-0.0013867280845789656,-0.006214762062183063,0.0007434764960848397,0.01509730388255364,0.0293568879105754,0.0370584312965256,0.03529547162162357,0
-0.016522416710892242,-0.01431624866261594,-0.013320142057430788,-0.01483595486957974,-0.020488363587330718,-0.03060977573707761,-0.04274713728665962,-0.05247768523906158,-0.05558824065693388,-0.04932762867982917,-0.03323792058472516,-0.010156124932170744,0.014032638100389854,0.03226777805039505,0.03933035974997924,0.03463866245056428,0.022663753687091483,0.010436307580745006,0.0036717243848183793,0.004448117822229772,0.011734100713508456,0.022715107647453468,0.03358900091382479,0.040584504964955255,0.04129685696270718,0.03549451523308889,0.02491801048443123,0.012701779617217367,0.0027335795151440944,-0.001988939779684335,-0.000987694334649977,0.004072075567307963,0.010521851637447238,0.015509346044635016,0.017483317177111383,0.01731120644879746,0.01776451495637075,0.022034737399918996,0.0313851316713808,0.04284825056319078,0.04902765782105592,0.04059280354632613,0.011800053110672332,-0.03135850841465637,-0.06421106221677583,-0.04450302487255658,0.07146401889869086,0.2988778441371313,0.5963727912911895,0.8628666596568462,0.973209928623004,0.8406158707504505,0.4685284814370308,-0.04320713281415385,-0.543487455576644,-0.8997510623679766,-1.051044644976104,-1.0162422279600494,-0.8623805599963457,-0.6613626044692553,-0.4620200662250457,-0.28744504780524843,-0.14693939295665712,-0.045072210881667095,0.017923652990802542,0.04837722644510003,0.05802669366646012,0.05929876626070537,0.060661595659122734,0.06500953625097883,0.07106265028675662,0.07598202163274081,0.07739118344019769,0.07426063668902921,0.06716358141261641,0.05788842585628588,0.04849044789048837,0.04052456427100218,0.03453761533592015,0.029927726769408265,0.025525640718578425,0.020290548208714503,0.013822211014987172,0.006901083797014153,0.0011450618753516394,-0.0025568296971831203,-0.005106049018102245,-0.008408479423501007,-0.013609435088127475,-0.02020259115084027,-0.026588998890015623,-0.031194321894067213,-0.033423891152965866,-0.03388117391049595,-0.03350212595034314,-0.03255368464579846,-0.030556894419254483,-0.026706188965294933,-0.020013768295619013,-0.009802725964073788,0.003437066655711987,0.018279130397270346,0.03325219569951056,0.047233778787838035,0.05987199307704269,0.07193343363994213,0.08476656068569383,0.09926510197984818,0.11533940925130098,0.13256248061224504,0.15088451265446576,0.16975808074362228,0.18728206279470935,0.20126835360242412,0.21056875283445603,0.21517788371049373,0.2158664036859822,0.21373373528463085,0.20935819065200556,0.20216279087230157,0.19072765179747384,0.17356783258168915,0.14974847453097892,0.11900777249620277,0.08173291058115961,0.03971919203454271,-0.0033641849640339144,-0.0433717082852216,-0.07738715171939009,-0.10411680424941516,-0.12389748498854117,-0.138498302369208,-0.14992650384644002,-0.15928573519063002,-0.16679271910733737,-0.1721790250425055,-0.1747279028544127,-0.17344172840956107,-0.16792448775112573,-0.15917146065728854,-0.14905831927059526,-0.13905380349082036,-0.129634693723525,-0.12071565861698551,-0.11235204863642613,-0.1050847861064537,-0.09946293374243541,-0.09491689411813072,-0.08940361042869595,-0.08068756216197975,-0.06812989294068546,-0.05307333085082971,-0.03741597546893756,-0.022327956454111605,-0.0084729675635839,0.0034866390438934407,0.013311613998620148,0.02163400064923491,0.029303607622591012,0.03637884778019741,0.042071991190623305,0.04564402930419424,0
-0.02189515224992684,-0.022249953291395553,-0.02226631582503609,-0.02217530061862628,-0.022657273345375047,-0.02500279433232798,-0.030071065700221538,-0.03659660986238963,-0.040363356021712087,-0.03577750808186066,-0.019975979198727085,0.004096357799236236,0.029014046040831,0.04687972718710384,0.053086697419329,0.04851303435843753,0.03868650927287036,0.02991879432917577,0.025805700279074802,0.026776291560690862,0.03127052833721292,0.03698555716575706,0.04185206042786015,0.04389879742618691,0.04108882414323814,0.03259435304289428,0.01986771937997542,0.006125175727792295,-0.005022214593624178,-0.010988002129802076,-0.010972258962103625,-0.0059387141108772435,0.0018472879087433822,0.009780423681126171,0.015988502472021642,0.020053072619000665,0.02310953877371012,0.026861656068054584,0.031737207162030746,0.03496197263293731,0.030041220178079357,0.009843818945419233,-0.0265083071260551,-0.065547066797107,-0.07493764538530964,-0.010459526836965946,0.1605758004250591,0.42834196568172006,0.7230096967463807,0.9297302152219797,0.9374171431458519,0.6977932575657371,0.25820053082837835,-0.25524111034772407,-0.6963729731538544,-0.9639445612859071,-1.0342865272584487,-0.9491788855988503,-0.7770759310584439,-0.5774924009660124,-0.38689312543465043,-0.22343878913618045,-0.09630532003545844,-0.009346792517575031,0.04021800319022644,0.06199873982648359,0.06847566599191979,0.06959121096903509,0.07012684006490094,0.07056517965564621,0.06963787870596139,0.06694178178596896,0.06379889459856022,0.06162198132487638,0.06011737666633653,0.057688117397622404,0.0531165470459804,0.046260231097448354,0.03754843105198666,0.02770323841533714,0.017877257514218023,0.009418500121155563,0.003209565028679832,-0.0007936803730680137,-0.003678518831685103,-0.0075843000931678315,-0.014713677099277627,-0.025380782385841887,-0.03717571146586379,-0.04612706833712342,-0.04890736590814955,-0.044497045052297166,-0.03429697195231527,-0.021191417290490892,-0.00828509124429963,0.002025408919559093,0.008226185435742503,0.009913069454903342,0.008356282373125586,0.006451865381837383,0.007571108812827445,0.013928902151831315,0.025877824880792134,0.042347710150649955,0.061368311351633946,0.080887001086056,0.0997154717886564,0.11738398280807512,0.13354534326120218,0.14790241198934606,0.16029393534163244,0.17081806955405765,0.18011138433263305,0.1892739647837401,0.19893795651599452,0.20821111950680377,0.2146399113941571,0.2151444862364932,0.2073237414229442,0.19064130902546234,0.16650598575716571,0.13696777472605448,0.1036831927909992,0.06792434305460879,0.030831246780352206,-0.006002031287441242,-0.04019780151778271,-0.06958775093291161,-0.09332290727946516,-0.11192714921076022,-0.12670212617507903,-0.1388722112531853,-0.14887960015118895,-0.1562001648528588,-0.15974085387348075,-0.1588104406576176,-0.1539198579104612,-0.14670015382369125,-0.13927764617179444,-0.1332053288482161,-0.12823613630235822,-0.12237486031149576,-0.1136224253966341,-0.10171684348379348,-0.0881794471095935,-0.07509369450755128,-0.06407033676648177,-0.05567614367241669,-0.04934426133635353,-0.043955810279968324,-0.038349769670786585,-0.0315144962536661,-0.023167933212756495,-0.014206836445305567,-0.005933528183998012,0.0010265416369371373,0.006498770999756084,0.010050209056490768,0.011456189337689524,0.011525147426373061,0.011697598235080972,0.013095482182625639,0
0.015069071579897423,0.014858686184485962,0.010302369193487544,0.0024306999971309847,-0.007583513933425468,-0.017903084883364985,-0.025964259324348624,-0.02944175776612212,-0.0267788070725684,-0.016960514797472473,0.0001375867936965697,0.02255268205884339,0.04536578656543731,0.061902778150573615,0.06721793542669137,0.061298101828053016,0.04940985208279112,0.03920933371709434,0.03628255599572734,0.041176307898184536,0.05017540115540069,0.05851857270253705,0.0629310246437909,0.062396158659556535,0.05767468944843733,0.05028569941074194,0.04186102113164132,0.03410137311643294,0.028674318833618748,0.02634405357865322,0.026086113265106174,0.025969695988681457,0.024946038788849982,0.023092557094004297,0.020742680914884244,0.01838086415841425,0.017338911414446476,0.019622378675092568,0.02579843661644619,0.03253219538407293,0.03213627316787256,0.015096203780936231,-0.02417597707916098,-0.07925026437395316,-0.12477260954347794,-0.11776727468040737,-0.014032470670199752,0.20326509026383197,0.49816849593604645,0.7783673302188084,0.9243884768471098,0.8439888819778382,0.5233672837467438,0.04277272005503114,-0.456735510203538,-0.838317861044508,-1.02728446887972,-1.0287140583031449,-0.9024493786595164,-0.7207366581199903,-0.5367362588954868,-0.3762573654996651,-0.24633174337447575,-0.14651645757230974,-0.07474523619096693,-0.027638140125093885,0.0008891369412062297,0.01889216790028666,0.03335246147179979,0.04764364847964121,0.06152764403046866,0.0732165398028056,0.0816067352932322,0.08664122908596568,0.08832336234739041,0.08676673332177258,0.08280891993410919,0.0778767119148348,0.07350216283883687,0.0702924354374781,0.06712744685751028,0.062145189348273344,0.054304984591189154,0.04387011290295753,0.03208076673464477,0.020566131879331845,0.010722948434773715,0.003182868292411047,-0.0022194285143339234,-0.00588632130577172,-0.008105857035617505,-0.009069236529415695,-0.009188035135248664,-0.009462080629086633,-0.010700052886376727,-0.012282458865808667,-0.01253126723612045,-0.010204640646770338,-0.0050570151853577255,0.0026947877028857103,0.012505748477687855,0.023506263922812954,0.03534803239391645,0.048361186413932084,0.062435941497016895,0.07695451699558638,0.09206767658491999,0.10883410736229382,0.12781975731927314,0.1480630468919715,0.16716145839826424,0.1824478389796678,0.19284608225331687,0.199614107490778,0.20535432229286787,0.212336930625874,0.22072337021377045,0.2279486008774759,0.23015893273847285,0.2241774736134433,0.20848591995247004,0.1832550173197363,0.14981634803549884,0.10982454015098311,0.06482597472120798,0.016973580568145387,-0.03003049669266774,-0.07145615141519149,-0.10356591592367712,-0.12562762931500354,-0.14029741251223646,-0.1516914381117897,-0.16258103037375582,-0.17327975606359397,-0.18252519755593627,-0.1883739310015673,-0.188751661032803,-0.18285416340001714,-0.17227221347297533,-0.15990969925479098,-0.14791620088456003,-0.1368369172845675,-0.1259742041886167,-0.11419567308954338,-0.1009732746736994,-0.08686431756438595,-0.0727769090307856,-0.05899474624394615,-0.04513193036606504,-0.031128742155421146,-0.01828761114671233,-0.008742297417200999,-0.003841433055685999,-0.0033219690850619897,-0.005484968701932904,-0.008080619100588122,-0.009146474072179042,-0.0069923893340814655,-0.0005802128954198842,0.009372944653600526,0.020182781646032783,0.0283272457347608,0
0.04905793286763002,0.061944772795848466,0.0688173604465428,0.07092345409429976,0.07205844695912321,0.0760892583536157,0.08468014176777715,0.0975485249687125,0.11371524002595834,0.1317660932306445,0.14946034971402697,0.16347101033132164,0.16973017134207624,0.16495589050433812,0.14878966029527452,0.12497106597593652,0.10027829663606454,0.08078014922683244,0.06808575961827791,0.060001013656915764,0.0546835323523201,0.052523748026971635,0.05356090943529198,0.05428107444797688,0.04791316984761726,0.02861487274542016,-0.00318125201375424,-0.03887067762658877,-0.06619741436507898,-0.07715629028615652,-0.07282094254662685,-0.06172846631095612,-0.053467568245753605,-0.0523764371344025,-0.05590522835752584,-0.05793766523026154,-0.05346996337108173,-0.04138308747936428,-0.02495645899312981,-0.011490658058237157,-0.011145771497040848,-0.03331570669171274,-0.07995010249344187,-0.1374647313477316,-0.1722675451457622,-0.13743788819865121,0.006717104846663394,0.26441842583340486,0.5827967843189074,0.8554780146066029,0.9609330888926889,0.8211121780178967,0.4459326546467589,-0.0648318808678212,-0.5640422072770939,-0.9203376832817499,-1.0677207797693955,-1.0180375644616606,-0.837156951373952,-0.6050555882008842,-0.38383005306007956,-0.206457939838779,-0.08224482528081929,-0.006704475454747276,0.03139178043992119,0.04559547107816388,0.0483340727200956,0.04853053878312872,0.05112490322472721,0.057944440379215645,0.06837705491867324,0.07968256201777685,0.08771388166888466,0.08884797375713421,0.08283758453620593,0.07329965225849149,0.06422842185293265,0.056743569769738406,0.04937213002096287,0.04024767076326971,0.029198656834000917,0.018492908522552812,0.011236190139262935,0.008623420528919151,0.008698496523132758,0.0076612723920423936,0.002491105697519966,-0.006813224591079459,-0.016920982463224137,-0.023593962285479414,-0.02496060543150769,-0.022753897740214808,-0.020597254395006898,-0.020907422169862924,-0.023486867817216234,-0.026377984977804185,-0.02722336978623839,-0.024742472617422337,-0.019442768572658763,-0.012779318758267192,-0.005849799400613483,0.001837413401305719,0.012458054207190794,0.027934353863761828,0.048187276732016886,0.07148546063089865,0.09561104346594129,0.11834031498962762,0.1378685044483197,0.15387565183055918,0.1679508385108232,0.1823811117715486,0.19858650604706923,0.21621812814150732,0.23255860588141383,0.24295509860989478,0.24324231609265307,0.2324600784659553,0.21351584058321516,0.19156324682564974,0.1711289942298103,0.15324652120410365,0.1338739944921732,0.10568938199762497,0.06384079469964737,0.01099815020504552,-0.043220192763838115,-0.08770200148197738,-0.11572720121920024,-0.12783983756049824,-0.13104034472050136,-0.13438176375579342,-0.14307793984218942,-0.15614263894051697,-0.16878911577365116,-0.1759823806396424,-0.17502321245767807,-0.16658295847996102,-0.1535067598610341,-0.13874589084657993,-0.12420596733701794,-0.11053588125944036,-0.09804579399345863,-0.0882065575183219,-0.08351946166614486,-0.08500604907656342,-0.08963759543557628,-0.09104070092878183,-0.08366763238838268,-0.06709486066154124,-0.04711381737171917,-0.03203007512484489,-0.026396351240464685,-0.027771921726980564,-0.029261002289807134,-0.024871502200136508,-0.01332667682575913,0.0017087989421500221,0.014660476592793247,0.02188420203220299,0.023580424339659165,0.023112854619703853,0
-0.017788789541818634,-0.013868702863818718,-0.007091003962992475,-0.0022914060395953233,-0.0018818018049740347,-0.004846672794917787,-0.008926238691622585,-0.013615542436217038,-0.02018065301608243,-0.028476768250544394,-0.034678252211578726,-0.03277833585831314,-0.01941746734979343,0.0016598119413277416,0.020687271854524698,0.02842125434530758,0.022633352447147377,0.009766713134153143,0.0005149492849122299,0.0023254664533675926,0.014915484016554735,0.032243495484832414,0.047580209331896245,0.056730183496011055,0.05828143879423055,0.052529113377923375,0.04115879855188519,0.027554559480894136,0.016071538804878667,0.01004317559883991,0.009667820293838923,0.011756914455307016,0.01234326531285296,0.009878370165233605,0.00582794862410047,0.003044271805713184,0.004412832978041448,0.011593709879475085,0.023507086445907828,0.036067526762971445,0.042692240714788804,0.03517223777652848,0.0072884377644058095,-0.037889173993594996,-0.08061196174070345,-0.08349587860305221,-0.0026566496323848724,0.18865038528764197,0.47304996400450405,0.7758875392977235,0.98124097559565,0.9791895357150819,0.7238468870879066,0.2658793296179836,-0.26503580200532934,-0.7197005730949555,-0.9951197282915228,-1.068593447438619,-0.9858419492041911,-0.8188496896381996,-0.625637120568593,-0.43639244586427195,-0.26453935982050514,-0.12246536508664113,-0.025045700107802722,0.020017731275376635,0.022436982910157895,0.007739168647474627,0.004145692586485193,0.02709482399594486,0.07084440148466584,0.11301411273628935,0.12988570883170528,0.11223081001160859,0.07103045406576905,0.029782975959901765,0.00932022690372395,0.01610704761456803,0.04134249806257901,0.06880088097989007,0.08440040573368802,0.08175238256739584,0.06206498814422598,0.03113971501899939,-0.0034768635312786393,-0.03387267367412127,-0.0524323574692468,-0.053982023306126684,-0.03888050656715781,-0.01439906289724718,0.006855848877742604,0.012211751229706575,-0.0033350986610866575,-0.032444553549032154,-0.058446839090225924,-0.06509655015566175,-0.04718665916883092,-0.013908509388615087,0.01793769444347923,0.03520469221522101,0.03581833435959209,0.027470861788772595,0.02059921414755674,0.02269566445120456,0.035831441668347966,0.056922092296108354,0.08110377372838311,0.1044011676779409,0.1231090924308378,0.13426581136739432,0.13882739875976094,0.14319670768873347,0.1562264284464476,0.18257800865892287,0.21751718466457218,0.24900106496534297,0.26588949325982686,0.265011971561525,0.2516810049400067,0.2342233019668371,0.21754962426102584,0.20040983476123259,0.177329307408213,0.14348797747230843,0.09886821171798943,0.048254715428829684,-0.0019008806923087734,-0.04651967357758147,-0.08351321561340165,-0.11352675733476929,-0.13808186510970832,-0.157758137121272,-0.17156548430579224,-0.17785075359081615,-0.17642307138054278,-0.16974726024804682,-0.16172889749273658,-0.15556203830455406,-0.15230316182843984,-0.15064136292818184,-0.14797955092937282,-0.1423237855382803,-0.13364289932255383,-0.12345968604453829,-0.11325349088026442,-0.10357718148483036,-0.0945118967855438,-0.0865433508454135,-0.08072960348296523,-0.077674171953586,-0.07625898481095125,-0.07361552399201238,-0.06670270502637625,-0.05437407783230605,-0.038022290619584065,-0.02042999622016795,-0.004370361828288875,0.008015167613088122,0.0154390081302192,0.018097206659839077,0.018114458696654324,0.01846653851880665,0
-0.021188645188740696,-0.023165830794900994,-0.021599919171432624,-0.01809657236275857,-0.015698024004402882,-0.01699979439918713,-0.02291183217949569,-0.032184622675124105,-0.04120195321059577,-0.04430747980936145,-0.03574314257120427,-0.013287710168138836,0.018624272517256558,0.04977090790360841,0.06929163294527216,0.07146079452463015,0.0587925848619332,0.0408192708619724,0.028281415210057198,0.026243324749113523,0.03195654920090867,0.03862053247021255,0.04069844123042229,0.0368560954137878,0.029270367952587313,0.020823351356820934,0.013368522479364962,0.007814960548585286,0.0043425028295117464,0.002512799230267226,0.0018804693411655117,0.00210255263965838,0.0021350539119640716,0.0005423442778113236,-0.002711016149163502,-0.005744315734953618,-0.006069104224244751,-0.0017835958408272037,0.007599298735333231,0.019955292141206733,0.029521188264979493,0.028222887365927603,0.01085303170447753,-0.01753157657000695,-0.03588261657091931,-0.008512923851956233,0.10124166332777945,0.30626115377161345,0.5721092709734463,0.8132921694226366,0.9214889413152054,0.8176295397865709,0.49773817829878375,0.04163145403860683,-0.422396138598604,-0.7756607431553287,-0.9561022554796708,-0.9698082152288499,-0.867482362625442,-0.7082437625371798,-0.5359739394448092,-0.37667363978657664,-0.24568655352734145,-0.15087515306964394,-0.09027013077981308,-0.05194513354262539,-0.02082249800244816,0.012215136191020319,0.046612766784406144,0.07559618623531439,0.09323292576322063,0.09965301346177038,0.10021911182243276,0.09997629270638446,0.0990813930205289,0.0938058275691129,0.08177877236486333,0.06560595767391479,0.051170668472558696,0.042411458316429215,0.03807022855600118,0.03380912887796996,0.026880321477165306,0.018133995933491465,0.010159124495748906,0.004421491435054671,2.4655778136314227e-05,-0.00532955835834833,-0.013252754729116637,-0.023007125641995186,-0.0314577969014398,-0.03535683827957918,-0.03441605866726529,-0.031867485825106186,-0.03176167537266939,-0.03524116721664995,-0.0388621412531564,-0.036975105265015885,-0.026523410545517864,-0.009936186959723939,0.006770404082126859,0.01903453720832272,0.027027345115222805,0.034425532683939476,0.04489225322954983,0.059845328157676854,0.07858172803058122,0.09979333864447702,0.12238099150448113,0.14478814164406767,0.16498235054950297,0.18167432978696973,0.19465662072427956,0.20396949956450305,0.20971054093614497,0.21261413293916406,0.21401354791776006,0.21498120264402085,0.21540798086861218,0.2137699539919566,0.2074597831161851,0.19322945747877476,0.16848069904045074,0.13320821831134824,0.09054359237198087,0.045217366426448434,0.0015313073408446953,-0.037638015324605915,-0.07078639032466807,-0.09753345231691513,-0.11848823635164689,-0.13454172490319916,-0.1459650775289874,-0.15300125429648392,-0.15740932355311643,-0.162329380817983,-0.1697984213909447,-0.17821355754601528,-0.18241413472065438,-0.17701260457372134,-0.16069376431124638,-0.13794426292604411,-0.11643676712976488,-0.10176788857675331,-0.09408487382112736,-0.08935601164249646,-0.0836092271479171,-0.07640703512691994,-0.07059784340166063,-0.06886832810881627,-0.07040349165826554,-0.070584268259386,-0.06440774014838886,-0.05075548605043049,-0.03326650759306134,-0.017130171115853965,-0.005022071840380778,0.004677363023397434,0.015727674279064956,0.02925335028135875,0.041734773001237874,0.04827599409790037,0
-0.021506080042852028,-0.024622990215168738,-0.028211424509932952,-0.03197052884268471,-0.03596483569855938,-0.03966679080868235,-0.04117419929877977,-0.037345993192686014,-0.024800732474999837,-0.0023149084309460038,0.026048298923062485,0.051216773923556794,0.06418084076160842,0.06138352235789725,0.046520411963237834,0.028560998491479007,0.017204461831678043,0.017744538836244484,0.028839061270893696,0.0445716830296956,0.058114496033754126,0.06450336972415831,0.0615721898969587,0.04965100355221251,0.031463057301191664,0.011783246480530241,-0.003733047617676545,-0.01055060721362701,-0.008099291345957015,-0.0011181460501624631,0.0031705459195846344,9.230648659331198e-05,-0.00969776396893457,-0.021193153413075802,-0.028202765164598843,-0.02628738267477958,-0.014291752012128314,0.00493445129651207,0.025036195281568956,0.038480655374275474,0.03893269982932973,0.022810628366840197,-0.007773024900754505,-0.03957092463357899,-0.043943921040537195,0.018437777355054613,0.17796793511991596,0.4276030606136551,0.704987241606204,0.9040634142484705,0.9190948627908724,0.7011152679176182,0.2914825935975438,-0.19266053905017305,-0.6140945275713409,-0.8774521789502853,-0.9607163708961889,-0.9034452586815217,-0.7682320915563892,-0.605588205028138,-0.44217252544758334,-0.28982766182756664,-0.15827506467123445,-0.05818221766390565,0.004449832329145413,0.033741297449779224,0.0425660134118819,0.04507160166289961,0.04955387154662008,0.05666283991483665,0.06289842628742157,0.0653443161632497,0.06351230404108865,0.058606266632114094,0.05249365450639211,0.04665597684477159,0.04132375267669675,0.035961375513989265,0.030752748303716264,0.027321600797625224,0.027617736837250394,0.03164937982744577,0.03603924115381166,0.03512995207535631,0.024493788010717228,0.004161522312417593,-0.020798998030000862,-0.04247981562520449,-0.05434332885867358,-0.055025122025429814,-0.04849141374714863,-0.04053294033841774,-0.035070427583362825,-0.032945943401074915,-0.03254492941007673,-0.03107451666709702,-0.026662187070431213,-0.019896061621523957,-0.012510884219823774,-0.004718441346517454,0.005101579059670971,0.017891785413660644,0.03191195350845919,0.04460617962263137,0.056589108823556424,0.07181124893129608,0.09322153906805296,0.11953018832215427,0.14598153951198767,0.16733150000051,0.1804011672234058,0.18541245583304544,0.1863214934043181,0.18885710398991842,0.19646840311518923,0.2079390254123266,0.2187287492672158,0.22392147542395324,0.2202856978813333,0.2071319302159402,0.18625363597012495,0.16057304091492108,0.13202674701436057,0.10078440989091043,0.06647006952699305,0.02962709370858537,-0.0076874550292580154,-0.04229131425174169,-0.0712398460739687,-0.09338548158559445,-0.11024757545078183,-0.12513179085624113,-0.14057034957317846,-0.1566978345348902,-0.17133391390693806,-0.180491309416623,-0.18042902410741823,-0.17105642086180733,-0.15695385521392857,-0.1445391625968712,-0.1376986596016445,-0.13544813532560734,-0.1335005628885084,-0.12757767506269696,-0.11573577660043026,-0.09913331627862314,-0.08109460859099361,-0.06517186651039764,-0.05349555983814697,-0.04597683584502192,-0.04079156944232885,-0.03574221096779484,-0.02942420138039975,-0.021977244983241405,-0.014848362459556726,-0.009067037569299389,-0.004144140153197105,0.0008282856311864553,0.005901569080402635,0.010338564531593777,0.01337017785552513,0.01500925459760576,0
-0.010881653515984628,-0.012596401410515722,-0.017698312659455526,-0.026310398553762715,-0.03663253948462647,-0.04590329374220226,-0.05156897060245588,-0.05182657357807975,-0.045600051096490166,-0.03243256577915951,-0.012684474419336036,0.011415430232577996,0.03465022536018683,0.050104017662024825,0.052954060921904376,0.04373774957904281,0.0282380501776991,0.014250347638582163,0.007982871422888706,0.011409438238981912,0.021411958535768813,0.03199857566138513,0.038185106844113345,0.03840873578488146,0.03388386091027579,0.026226771871271426,0.01611515276130501,0.0038710381049487847,-0.009329306218750881,-0.02103330811072823,-0.028273014396638187,-0.02914645970121655,-0.02426636290558641,-0.01650844243137162,-0.008826578016911063,-0.0024523442340889812,0.0027771579402926373,0.007386503887636498,0.011949664414665499,0.016437517687979613,0.018995394928891973,0.016128697264836896,0.005674914129866542,-0.008056480364475855,-0.009783538285914837,0.026342064598696383,0.12815824482214094,0.30885924021045985,0.5477768118518462,0.7805827512196994,0.9134021092688155,0.8631944299703366,0.6035452203922611,0.18602745867319076,-0.27796446328655505,-0.6665699650888559,-0.8999688686500588,-0.9649581490474937,-0.9016480643025871,-0.7685762584273839,-0.6118039183919797,-0.45476149129098703,-0.30681806520400157,-0.17530769147373626,-0.06958891949788763,0.0031607412703167567,0.04357970317415243,0.06023639606124632,0.06445948755793723,0.06527838801762383,0.0671751117616794,0.07040305469307453,0.07321712439354677,0.07411979169867408,0.07249914007632832,0.06851589260072453,0.06297983405315213,0.05665452689812508,0.04954363189377374,0.041329784056985217,0.032535498832001124,0.024645481983473827,0.018760192059645533,0.014489791147523783,0.01013231647128079,0.0036286002371816155,-0.005923425348622191,-0.01697314724057026,-0.026411890692672295,-0.032109136575614344,-0.0341751774333225,-0.03444237025568471,-0.03502767984318283,-0.03653601476482824,-0.03795283560963107,-0.03829326271160082,-0.03716128182188314,-0.0341409377427225,-0.028850775245029287,-0.021203819841211693,-0.01112045934904756,0.0013662534351375141,0.015655199090608397,0.03092523615036494,0.04691389021688263,0.06410460494167085,0.083068280546298,0.10344923344790398,0.12386135715185217,0.14291712495798314,0.15996887741929713,0.1749894809510377,0.18830886983880174,0.2005473358562086,0.21224424273169207,0.22305124175732707,0.23151154305604962,0.23571202738344949,0.23388511770574932,0.22486472708319977,0.20873672060261403,0.1867748974386127,0.1600101231826998,0.12845825820697837,0.09216499079619637,0.05225378493491765,0.011147067545921888,-0.028185212274604403,-0.06361938548592541,-0.09421640244144563,-0.11966985204155262,-0.1401267988529675,-0.156142927044569,-0.1681309872108227,-0.1755967507952096,-0.17746845835321629,-0.1735466455041735,-0.1652302669433432,-0.15510607746105942,-0.1461810114023174,-0.14044792019285976,-0.13756417363127926,-0.13548699441296544,-0.1319329872223814,-0.12486033515818046,-0.11326030664933039,-0.09825070496158311,-0.08235400854108196,-0.0679960847979799,-0.05684820478436516,-0.04926140351390119,-0.04421006869052255,-0.04025114211932139,-0.03604853602742932,-0.030218551777848608,-0.021888947284818147,-0.01157772901989488,-0.0007567813387576658,0.009261485950431463,0.017756284587285717,0.02454672160523458,0.029728761740643657,0
-0.01290357814813408,-0.02576652153486537,-0.03656782207085227,-0.04010022432034275,-0.036847351752028704,-0.03179206024669406,-0.030096079971240922,-0.03292151448571864,-0.03568012065278238,-0.03083163521589911,-0.014075147558735141,0.011320141986875486,0.03597311287449995,0.05030523952926843,0.049981032477153846,0.03735092106106464,0.01940299702917492,0.004242157564430519,-0.0023448669844129202,0.0008834531589422476,0.010672183048189692,0.02203752321098877,0.03141694895613049,0.03724041616895775,0.038641196155817764,0.03490549892261732,0.026210633139213166,0.014452090949045785,0.002903843901997964,-0.005512814309340786,-0.009710372572844373,-0.01023405969254515,-0.008412836229199562,-0.0059517428960862125,-0.004216431761099042,-0.0032196697629198216,-0.0017634487899427388,0.001440369445906758,0.00699698317192687,0.014134909299351812,0.0198541143510313,0.019165417005863786,0.008121450074238142,-0.010069841297158362,-0.019349160284763876,0.009133744389127334,0.10725492027796663,0.2904690869842332,0.5367753610080302,0.7785121122903554,0.9192894436038035,0.8750975230090581,0.6190384062995051,0.20166618809164777,-0.2672041088743505,-0.6661633276912721,-0.9126608241713935,-0.9883251515491719,-0.9288209089834769,-0.7913511251459354,-0.6244420139538371,-0.4566880535264489,-0.3026321036109969,-0.17212154958605075,-0.07276883345211102,-0.0064363777482827345,0.032805031395390254,0.0552059416512332,0.0695360136490043,0.07977337928145467,0.08567399720202354,0.08606540445425935,0.0820449267378375,0.07689180508248318,0.0730933671801015,0.07015692919361721,0.0652410386275134,0.05576767244246425,0.04227745068631302,0.029059419498948896,0.020996134713391814,0.019302650462389367,0.02014554218415407,0.016795819129800438,0.003708345551320387,-0.019503218994010526,-0.04655822307110672,-0.06750852843220051,-0.0750519695888556,-0.06913334301877087,-0.05644747735717898,-0.04595058121457116,-0.043466213253731026,-0.04879438164960714,-0.057004816678809106,-0.06216152771953419,-0.0607172524010478,-0.052866644175952986,-0.04104620570259951,-0.026906033906081758,-0.010193332047791027,0.00944202768312526,0.03100508785246111,0.05273242137550234,0.0726544382346122,0.08894710613488764,0.1015056999723046,0.1134697752347337,0.13011509156054385,0.15524652879435435,0.18811299047032853,0.223153853117346,0.2525898288423587,0.27050948506800165,0.27601676757693583,0.27298726869311024,0.26664662450241666,0.2600183804232017,0.25269980313843626,0.24235186121786068,0.22729198868339642,0.20747193270021447,0.18342819334367805,0.1549528953767796,0.12056048049337313,0.07864820207934878,0.030419267947261158,-0.018759977004174574,-0.06221801763543384,-0.09611011622033817,-0.12107046946613498,-0.1408926421625999,-0.15929207820272523,-0.17681484853553472,-0.19044412958129459,-0.1965693768332475,-0.1944374974105185,-0.18661991374796477,-0.1768192446283362,-0.16795865456183973,-0.16176204505389996,-0.15854887353593575,-0.1567104255684631,-0.15304284306977256,-0.14427427749778735,-0.12884833610553964,-0.10835586987723293,-0.08756910104378207,-0.07193015273274155,-0.06407094335595481,-0.062473637755106726,-0.06299751956154653,-0.06149258695231338,-0.05579517394906652,-0.046125246318047576,-0.033970866458270896,-0.020876634621784764,-0.008065208087792493,0.0032404963853864995,0.011710864976311835,0.016687016027073932,0.018633237571872182,0
-0.01906517591342792,-0.024424003999494726,-0.02980317906314992,-0.03363945856319546,-0.03505084945093436,-0.03429560380527735,-0.03229139521178558,-0.029304170326952615,-0.02431583578001894,-0.015866331007482016,-0.003049951830909985,0.013559303895468234,0.03057894417846323,0.042072026831762255,0.04267846711887932,0.03177846028674137,0.015191060102071085,0.001944617267590923,-0.0017126790353874841,0.004041230844731642,0.01426046075245023,0.024066016052794695,0.031163679858097214,0.034672782622009006,0.03395960043035318,0.02876208199497258,0.019460186992613822,0.007624124718206738,-0.003915754692456802,-0.01265931729749899,-0.017972092904683087,-0.02035341826259668,-0.019833884723446292,-0.01606011283675742,-0.009396924768744649,-0.0013367717169211922,0.006350037899539914,0.01318625310160545,0.019819563164092297,0.02554773513993157,0.026327200582751172,0.01572147281040523,-0.010105087015359766,-0.04493102387481534,-0.06726488179927806,-0.04258347682583406,0.06360810352054973,0.2644119878372047,0.5318925991096003,0.791804674826444,0.9428618800406432,0.899234794393096,0.6356833021784366,0.2073384573748561,-0.27009795759293515,-0.6703594601678721,-0.9091178424833226,-0.9701893640052284,-0.8945075847441063,-0.7453919051968965,-0.5756515133347534,-0.4142232316437824,-0.27191280839018694,-0.15319886076874478,-0.06256816314400099,-0.002625345233356141,0.0303462363966696,0.04575782526389263,0.05356946922335877,0.06012604779183993,0.06689529186337342,0.07217016368934115,0.07444529566144159,0.07393873542028416,0.07157976617409903,0.06790574902493915,0.06269062629058651,0.05542677223287685,0.04657076305626354,0.03750138528584174,0.029066320705556634,0.021254164528759244,0.014050675658355417,0.00754871651982225,0.0012859867160052597,-0.005467271239888261,-0.012463966605697591,-0.018484189976806478,-0.02293216980993672,-0.026585220195190225,-0.03053214934268321,-0.03521537204434324,-0.040322801235717305,-0.0448323656815981,-0.04761544391818854,-0.048008054953346084,-0.04545901666849986,-0.039719301840576586,-0.03170107766013217,-0.02281105789326537,-0.013471986448673442,-0.0032051316426952494,0.008598895376565004,0.022394450888150043,0.03802964035761834,0.05496660104156417,0.07373767346294703,0.09582621780114071,0.12123486925844376,0.14768905082950082,0.1724050172184893,0.19357192140999607,0.21092140354978417,0.22571047805541178,0.23953241346533183,0.2527216464683061,0.26404665457937126,0.2714296957640668,0.2723023515206232,0.2640592256794814,0.2452696219275109,0.21645328886771784,0.1798110894780919,0.13831354878438307,0.09451676457693459,0.050042314072211685,0.006075451858581937,-0.0359126379667352,-0.07405233027581404,-0.10667148553735872,-0.1330415386789549,-0.15373080580159904,-0.16991810782953662,-0.18210187105897557,-0.18986371951751366,-0.19272742401825183,-0.19088852046637178,-0.18535706611299063,-0.17763112331195177,-0.1692129108630721,-0.16114670096556316,-0.1537188885471318,-0.14652428601744727,-0.13891970214239183,-0.13056514847086692,-0.12152763509222457,-0.11192375774282377,-0.10143091200550033,-0.08957605331639125,-0.07703008642465536,-0.06566417703027604,-0.05668372493683334,-0.04944954126804835,-0.042368650090774916,-0.034336312860918414,-0.025149983073816683,-0.015229466320646999,-0.005283110710777219,0.003918845505343424,0.011600779014979825,0.01710941642845471,0.020283016242461274,0
