0.017611151773745864,0.021115047854983575,0.024539432298692144,0.025327539740923177,0.02205506503027497,0.014991707746186595,0.00547486242795047,-0.005120081558241621,-0.015297642415276917,-0.022602966835078658,-0.023980416409612477,-0.017455897957694227,-0.0037241212712873463,0.013423410070443145,0.028446274923568337,0.0363258348562103,0.03421326818905013,0.022303321080366936,0.0035940152450021886,-0.01804559539793427,-0.03968143408268793,-0.05923532613120415,-0.07494247920039347,-0.08588243291111522,-0.09282328538209692,-0.09837633664679643,-0.10598125609969744,-0.1175391417148353,-0.1317412121949401,-0.14538673145356776,-0.1562607780284072,-0.1644288062445972,-0.17103090142433863,-0.17682251708814023,-0.18220535106571462,-0.18733617343988232,-0.19192163188330988,-0.1966316660508386,-0.2059006138990246,-0.22913593062134277,-0.27692225862922887,-0.350791949490164,-0.430558368890296,-0.46895341398903645,-0.4037618281024002,-0.18714345997723192,0.1838333294094937,0.6547907107801358,1.1273277042288365,1.4910593362321198,1.6592599953665605,1.594639806495464,1.319436674490258,0.9083955681015073,0.46510477411416745,0.08764473636526271,-0.16340418496896325,-0.280054983280411,-0.29885661347069437,-0.27517818277908296,-0.25354189071316474,-0.2510580001056508,-0.2619287285710561,-0.2732861960929875,-0.2773335069600912,-0.2737998810266483,-0.26606223944825563,-0.2571192663438165,-0.24815325441828118,-0.23900668725407598,-0.2291992284604959,-0.21819387221206304,-0.20554571109437986,-0.1917854483423762,-0.17831288159935563,-0.16612600290174717,-0.15566304415836657,-0.14733977397541734,-0.14094003692480914,-0.13492655819317928,-0.12737369810938687,-0.11746557854493134,-0.10597831799385468,-0.09452250167913111,-0.08412131720957298,-0.07460076171888437,-0.0652814433379896,-0.05590631763711961,-0.04679911559168515,-0.037935808166058085,-0.02843543604908137,-0.017558835299951305,-0.0054169503557742055,0.007796308298300893,0.022372825977000507,0.03815647509953058,0.053791076251123573,0.06786398454600032,0.08038689413348862,0.0927571015043198,0.10679089859862813,0.1236928383371414,0.14318041779272278,0.16331610203879002,0.18122248139817085,0.1940438580600094,0.19978489443524683,0.1977583550391476,0.18840096722023486,0.17280133343259482,0.15226621841825586,0.12813964912205955,0.10194650558237045,0.07549387878075886,0.050304624992645625,0.026568730026387936,0.0033547405122374176,-0.019451524557997275,-0.040226708818624876,-0.057111472863130404,-0.06933954879993802,-0.07692493837644326,-0.08040070927662324,-0.0809233727997662,-0.07975610327678188,-0.07788210953977856,-0.07616948267515515,-0.07530822960741144,-0.07519797655033614,-0.07440153848420576,-0.07102395459840226,-0.06439968669721365,-0.05525410635300102,-0.04479461828970227,-0.034655632245549996,-0.026774683588654417,-0.02214742502926893,-0.02026386006940344,-0.01976046602514446,-0.018855759288109095,-0.015833229164791556,-0.00996936420900994,-0.0021581197241022625,0.005297341096598062,0.009963414561075289,0.010942517697950486,0.009499089568688272,0.007889379029534788,0.0076798581394125365,0.009303844728938051,0.012269522890541156,0.015565009602789667,0.018629251469345198,0.021409966765238465,0.023357589372209272,0.023645653152107756,0.022257164910856643,0.020006300821112506,0.018016088193684672,0.017428405930294308,0.01880956857525503,0.02155234764112611,1
0.014892144344215482,0.019508429360044557,0.019927062222389238,0.016051658485359593,0.009725560228239498,0.003121476640397003,-0.002035125323114304,-0.005141729437314715,-0.007899452270361571,-0.013590916346858922,-0.023449023632335166,-0.03394288569985681,-0.0386343420231286,-0.03327776013129422,-0.0193524088745626,-0.00294368165233845,0.009106727066462053,0.012295853534555336,0.005992116250960727,-0.0069669283356778985,-0.02316127964986513,-0.04128939673978202,-0.061649402625845416,-0.08363529567746929,-0.10464841830734538,-0.1216379664365596,-0.13318733736498115,-0.14019535910441816,-0.14516297666794534,-0.15037008589744488,-0.15638176445434235,-0.1628304551284177,-0.1700595485005423,-0.17871704875158353,-0.18813825892526193,-0.19626836107701165,-0.20119853154628894,-0.20331247524049817,-0.20814278161981173,-0.22788946872952057,-0.27647423585779846,-0.3563925631154276,-0.44424893442777136,-0.4872276240643116,-0.4193397132107378,-0.193487529798891,0.18910996297942287,0.6704180323480851,1.151354581058425,1.5230353716099454,1.7004134568741438,1.6461563512505206,1.379315396707129,0.9695849713342437,0.5179110352345128,0.1247315972087955,-0.1437668298619528,-0.2741389814638341,-0.29994567797177885,-0.27659729532079524,-0.25127353459240076,-0.24537779693433615,-0.256709291374253,-0.27325528425645235,-0.285544552203588,-0.2904009196721969,-0.2882031818085949,-0.2798304417261159,-0.26637252628445646,-0.25009877752314214,-0.2338713936369901,-0.21960923726565101,-0.20804583925622622,-0.1990033282350664,-0.19124820036688506,-0.1830109766872303,-0.1731853819102095,-0.16177472580790014,-0.14944054321189312,-0.13722561670941746,-0.12619211267854458,-0.11667414314493081,-0.10828436245121179,-0.10061130407870428,-0.09340344363323666,-0.08618060844628789,-0.07811531201475422,-0.06857612497632569,-0.05750490081385644,-0.04517321411320894,-0.03216098610108049,-0.01957987017924364,-0.008753677747310201,-0.00032825849409532856,0.006400139999138108,0.013290089317689529,0.022433117909465485,0.03508079839765749,0.0512924559435754,0.07020711679752231,0.09006559047635591,0.10843652208174737,0.1233462994677723,0.1345455588892649,0.1437221710313839,0.15335008477095974,0.1647412108597308,0.17700537504311836,0.18798222092368985,0.19550892972343825,0.1975938497898516,0.19237025096562296,0.17866590157492576,0.1565797530582909,0.12782649066996557,0.0957966107392273,0.06442355856263289,0.036597427197750276,0.013503530624745939,-0.005631316354205346,-0.023040036085498823,-0.04044548240714921,-0.057762012885936576,-0.0736679788763065,-0.08652749290424584,-0.09531879899968485,-0.10023672418787039,-0.10197362641482002,-0.10074263460775773,-0.09659939740574074,-0.09037359913667457,-0.08356435765409655,-0.07751281212010817,-0.07290061771070343,-0.06947321183214089,-0.06622301754182183,-0.062282615416565906,-0.05767320103747706,-0.052977988135914825,-0.04829774124504499,-0.04275647094085826,-0.0354856969565468,-0.02740261575026971,-0.021124921600966823,-0.01859920376888117,-0.019406828083020168,-0.02098842012882702,-0.020188901055116993,-0.015553626838184679,-0.008390502254025028,-0.0012282109189662785,0.004189286011218535,0.007212570782142713,0.007966489076995757,0.007374436033008833,0.006788753625386132,0.007145853086071744,0.008425650285009651,0.010031190575569662,0.01170689387278104,0.013931362797660982,0.01726664009921316,1
-0.004400675132331694,-0.00799918655598604,-0.010783167956453371,-0.013397841320319397,-0.017126804538687958,-0.022389680014892756,-0.02815105575159165,-0.03325642397048937,-0.03731817541805424,-0.03949811076159544,-0.037262189644536044,-0.027466250659712598,-0.009205235102815785,0.014179149067597034,0.03572937990998015,0.04786830428220005,0.04622146600983308,0.03178990586400862,0.009627568702607172,-0.014593227518095693,-0.036945547600109895,-0.05563688182960675,-0.07042677309461873,-0.08164568408637539,-0.08980424310000495,-0.09616544253131011,-0.10271303690195717,-0.11092658708327459,-0.12048632932764815,-0.12944680429409317,-0.13617422629804043,-0.14042472020386887,-0.14243802794895136,-0.14248381647932945,-0.1414275620534766,-0.14060735917611403,-0.14116638065241116,-0.1448780135419807,-0.15708558980160367,-0.18779572668545857,-0.24508293363186104,-0.3216245855121379,-0.3843340929294234,-0.37888755198757884,-0.25222577053319933,0.01759329668444775,0.40172651690936056,0.823872579990717,1.1852534510717707,1.3968932853274483,1.4060264504360311,1.2113208777328734,0.8645374679573391,0.45686228325342004,0.0900629501413939,-0.16009615486837886,-0.27049175982050155,-0.2717550370225298,-0.22423194901123455,-0.18335065826713626,-0.17444590940833615,-0.19096514633752754,-0.21259328638813313,-0.2253178588454936,-0.22792117275325843,-0.2258023455657351,-0.2235897358963558,-0.22281312051154653,-0.2227055222164785,-0.22123813247214436,-0.21607821983937653,-0.20582887362699745,-0.19105267843121548,-0.17426961099351973,-0.15856332626432407,-0.14581980795626132,-0.13611797017033447,-0.1284060171523037,-0.12157190487437612,-0.11491200866963006,-0.10778977375685395,-0.09954677580186146,-0.09031183872248366,-0.08130439708072966,-0.07350686911976852,-0.06672260315696595,-0.06046659096132283,-0.054379586378133934,-0.04741164014462328,-0.03830308713637796,-0.026965157716139346,-0.01411882888750595,-0.00020902998450053958,0.014368092053803919,0.028812669413413722,0.0425080140179185,0.05583505618994518,0.06982507011135064,0.08498448110291366,0.10103209576800092,0.11756284507979702,0.13435466503186883,0.15117059068579322,0.16769302709399578,0.18357228985740887,0.19804898496885331,0.20966845175625215,0.21666905938077877,0.21746508262196107,0.21105255849912513,0.19747330035281044,0.17793454013872187,0.15436004898037772,0.1283842782530631,0.10026773346840274,0.0693135693210441,0.03588507099101794,0.002301115017400438,-0.028541696801613878,-0.054514141390478534,-0.07428489339107758,-0.08757337411706634,-0.09555627844407454,-0.09992247995609761,-0.10179862484169688,-0.10209053035041574,-0.10202941201024827,-0.10233262908289113,-0.10199696296705289,-0.09903938288161407,-0.09253372408085007,-0.08337726260371517,-0.07348752008324232,-0.06444172479712501,-0.05651858303883834,-0.049210035003806316,-0.04269423619409768,-0.03842220444854833,-0.03786249866210287,-0.04048804512740254,-0.0434492645425586,-0.04369575603178577,-0.0402631160911684,-0.03458766831651856,-0.029081469876713117,-0.025248220834072677,-0.023049470125301764,-0.021767338129861993,-0.020383020134123304,-0.01772224795146931,-0.013398390115631768,-0.007848871084234559,-0.0015467224007090982,0.004900703767058251,0.01069696827827542,0.015435204736079122,0.018931539760929015,0.020692580251092763,0.02047983299232942,0.01913453369795263,0.01809294256387904,0.01829911611919132,1
0.0036114897153458306,0.0026949446376705773,0.002052394719357342,0.00034961966228942736,-0.0031641764788035527,-0.00799548876265277,-0.013491455603575005,-0.01970389580497559,-0.026072482216001894,-0.029889886089075328,-0.02728752113382639,-0.016062171473512393,0.0020471801129877784,0.021615249069844706,0.03635310095330926,0.04211151171847464,0.037900242315719326,0.025058180909634895,0.006162154123922411,-0.01578680057183485,-0.03821691763435886,-0.05930358261527155,-0.07757729478517894,-0.09175108011360752,-0.10135541675434667,-0.10752242544407513,-0.11273687538270286,-0.1194406402775137,-0.12848076516269352,-0.1386417630422939,-0.1478753333692547,-0.15525830127029722,-0.16171594006118722,-0.16861385976702925,-0.1757539658022797,-0.18128062167091474,-0.1838437389068714,-0.18548028425334998,-0.1940418553974544,-0.2223741092220068,-0.279976910591079,-0.35877670494070796,-0.4229803004982415,-0.4142538498640211,-0.2755079171477385,0.017204207892512296,0.43343692722325444,0.8910526782370668,1.282366959166146,1.5106598413821255,1.5211174642008198,1.3168383198544393,0.9569668894836469,0.5374470360860608,0.15884342744507338,-0.10776050321747095,-0.2414685372716587,-0.26946082358635304,-0.24495654053377672,-0.2176214553246053,-0.2123418103177315,-0.2271872030750483,-0.24709686353184906,-0.25934340137220013,-0.26048921707275463,-0.2540674812676134,-0.24458045413752716,-0.23411524663262095,-0.2231851736589098,-0.2124528689697114,-0.20259713291468578,-0.1935468196214955,-0.18448048092452787,-0.1742893317133912,-0.16240625329143474,-0.1494362714166233,-0.13684051318806048,-0.12609380413619786,-0.11791748731312195,-0.1120668503588978,-0.10774070748972348,-0.10403334622676412,-0.10021515739455726,-0.09547586725684587,-0.08859802186491503,-0.07875777378015236,-0.06647490887949162,-0.05340727292529807,-0.04133129387230171,-0.031213318969444133,-0.022966563089869985,-0.015511204359929719,-0.007152578503904574,0.0034289815516280325,0.01650422455911585,0.03161653686688642,0.048130491359151824,0.06517101280362284,0.08164095953123807,0.09679800090976971,0.11055907669129311,0.12344576477404579,0.13641217845455816,0.15041880520044718,0.16568711493734448,0.18092164691309878,0.19355298612130764,0.20084905768105532,0.20082019297251466,0.19287333475443266,0.17771797544331852,0.15659622482077595,0.13107458431291444,0.10308205696578773,0.07456296273652988,0.046981063896988015,0.02105677888983823,-0.0028564827715503657,-0.024388974862043975,-0.04330505339802297,-0.059624650332756955,-0.07348271821283758,-0.0848867310370912,-0.09345964975704185,-0.09849296037938102,-0.09941314290770473,-0.09633339414861808,-0.09055488566267228,-0.08429369652602006,-0.07934465335868003,-0.07614359321718026,-0.07390351204163083,-0.07148539166659043,-0.06832928106863345,-0.06425743177658212,-0.05883563240666751,-0.05187440613087074,-0.04420743350765908,-0.0371446578615031,-0.031385329247316844,-0.027027110338139586,-0.023997010276272147,-0.021722248028140285,-0.019063236625935016,-0.0150362500639851,-0.009343279177522645,-0.0027203370933049868,0.003321046288204201,0.007800661518981181,0.010577334716037636,0.011422291624111697,0.0102224165014318,0.007963750459700348,0.006528020530531666,0.00743708530410205,0.010933852696410909,0.01597151982126737,0.02072691000812356,0.02327985887219477,0.02270702829537185,0.02000363828101919,0.017271432690763724,1
-0.0013022957359884806,-0.007247548214823174,-0.009682699935558222,-0.008556061981016423,-0.005821397597175033,-0.004084641142927149,-0.005411832392182583,-0.010896558731604002,-0.02006494300063539,-0.029997243235499984,-0.035997162718699925,-0.033852975451627146,-0.02179931853766267,-0.0018913645635132966,0.019853277433051604,0.03609615017569068,0.04191464760556175,0.036327836037967784,0.021436004982971137,0.0007826210407767013,-0.022142638343961834,-0.044350673430034356,-0.06295533362775985,-0.07581322569593617,-0.08318330060349896,-0.08794427458134896,-0.09364725300487695,-0.10240666737913821,-0.11419495061101614,-0.12732344157171888,-0.1395570697942441,-0.14931613018579473,-0.15620088661899398,-0.16077542745175155,-0.16394963577199556,-0.16615736118145114,-0.1672083003581802,-0.16771121655836727,-0.17167502338905832,-0.18818987527506503,-0.2284647494888047,-0.29639982630534534,-0.37628939442341,-0.42608709169866854,-0.3866480963477879,-0.20890675052042346,0.11609533749040807,0.5436226447112786,0.9846061020410076,1.3327124727055841,1.4989639070197318,1.4415202684253028,1.1798697285228446,0.7887691369530891,0.3733649086460129,0.03230142614946928,-0.1768338117637221,-0.25321634606336973,-0.24230567611619008,-0.20520495722716425,-0.1856505569425198,-0.19465222556396825,-0.2186179923595252,-0.23908639528190823,-0.24736629232304996,-0.24585348299457166,-0.24062327861237776,-0.2351580923766762,-0.22956284224405335,-0.22298797800747183,-0.21536199695027114,-0.20694892301284531,-0.19750925084536536,-0.18672047208750467,-0.17482248154785932,-0.16232172852953416,-0.14978609376405974,-0.1381932963776433,-0.1285014461906423,-0.12085916021859221,-0.11483005452792043,-0.10960187725409055,-0.10363250036967217,-0.09550277047087583,-0.08550455531919351,-0.07538679889031344,-0.06653363039311305,-0.05877795618550409,-0.050895226202586186,-0.041912538371627506,-0.03166023332998415,-0.020477462815154408,-0.00863429961333425,0.003985490493296554,0.01758194865011126,0.03225538130085373,0.04787996300826729,0.06355529945440724,0.07806395121093829,0.09135399818854506,0.10433914960047823,0.11738595532431613,0.1303267633932425,0.14340032685397244,0.1573100081586094,0.17246911355687675,0.18816555286876008,0.2024360723934509,0.21244678481439966,0.21515264438262716,0.20864070640072244,0.19308944666581884,0.1703544083359532,0.1428618199980412,0.11252293733410902,0.08042870675895183,0.04753830238404612,0.015261701582388047,-0.014818340592805901,-0.04157405633408685,-0.06417411642387491,-0.08170295784070813,-0.09391965907115074,-0.10179204299432565,-0.10659972853320335,-0.109121665405023,-0.10980054937947797,-0.10894185547729315,-0.10653714498768582,-0.10248778787384635,-0.0970357951975663,-0.09060054298583967,-0.08336395666775774,-0.07493434866838561,-0.06472831160671975,-0.05333023071056405,-0.04272294642833791,-0.03467786938957566,-0.02945703884123925,-0.025935572886685535,-0.022572835827991408,-0.01847215661047858,-0.013849487451439999,-0.009337522669560384,-0.0050826188952158,-0.0011585733016472692,0.001954252756648605,0.00402979834532162,0.00539941213516386,0.006420264001013788,0.007209602882575753,0.007876252339380729,0.008793898258845445,0.010426688113669046,0.012804877174797214,0.015517702331057056,0.018190001998053932,0.02055933374910606,0.022190308382526183,0.022609648664135756,0.02193256897042662,0.02102706373505639,1
0.027056242103920273,0.027278065430205046,0.027522871116863197,0.025716013275637623,0.020815777395483986,0.013470988763090032,0.0056011134212302985,-0.0011930245798125333,-0.007207384698706351,-0.013455450268526936,-0.018589507107997248,-0.018358594071077712,-0.00896772135574919,0.009064716780593406,0.030261072227755568,0.04679833385799626,0.05233111758102726,0.04496345284644794,0.027346860303565375,0.004404750383261147,-0.019037984093059047,-0.03958594759830407,-0.05545840010707377,-0.06638967133278575,-0.07376442813606003,-0.08021716090104375,-0.08833622374841467,-0.09910202960193075,-0.11107455888854287,-0.12113164382877362,-0.12675862167369656,-0.1283518637816017,-0.1289456734704649,-0.1314745897261355,-0.13671899624151365,-0.14341569047006847,-0.14952764392694007,-0.15371210891560794,-0.1576176561845536,-0.16903836088981475,-0.20089107548691462,-0.26105726685444586,-0.33776544412689363,-0.3921557028192128,-0.36777564610404606,-0.21690015988529304,0.07084350170310758,0.45595018572612195,0.8586263452695845,1.1839237997224727,1.3517487016860947,1.3209490925691156,1.1012142937531542,0.7516849275366144,0.36439898480213523,0.033413329205233266,-0.17893439895475569,-0.2620348221057354,-0.2528287151522622,-0.20931016523688242,-0.1777600094958454,-0.17457132385369,-0.19105782738635507,-0.21182969721216305,-0.22948016035430052,-0.24516854274222702,-0.2598940546293267,-0.2688767196419758,-0.26448590595034394,-0.24320713261255375,-0.20970604061212839,-0.17468191536644384,-0.14843161872553007,-0.13505906636986165,-0.13115460992537165,-0.12927980272611148,-0.12340030003231311,-0.11227485273003929,-0.09885025790552675,-0.08744421481278254,-0.08112094430901157,-0.08013916850659838,-0.08219162966721465,-0.08368791431756245,-0.08084482534423035,-0.07122626910747529,-0.05514072131431086,-0.035217550988543296,-0.014600200617740849,0.0045124862871254445,0.021001178579295322,0.034663664973260004,0.046329298135763,0.056947399739213034,0.06637837630762024,0.0737965949007802,0.0790053796772313,0.08303616413757425,0.08771959602699042,0.09457483494172753,0.10331081800732102,0.11120776399231357,0.11514138190111722,0.11492154512023771,0.11421930876361046,0.1183442906226233,0.13092001081635354,0.15102460107598514,0.17260251515975925,0.1873265450545231,0.1890243857993585,0.17619517304251242,0.15132470093082317,0.11874746534889218,0.08290933543148536,0.04736307861315521,0.014316412261055136,-0.015085462566663706,-0.04020131443718498,-0.0611101017937003,-0.0789044430106704,-0.09457628036279025,-0.1075187347914786,-0.11580880331187829,-0.11798202356612995,-0.1144472344708066,-0.10736875732124763,-0.09955122841057579,-0.09362917944671814,-0.09090302132771971,-0.08985908388841943,-0.08703924159974066,-0.08031102708129562,-0.07095615618976109,-0.06269921820193165,-0.05924203310758348,-0.06203688910682101,-0.06874935392246538,-0.07328447557877754,-0.06871822941585708,-0.051791921202253406,-0.0251521329107725,0.0038685480235069476,0.026855624489552473,0.038715951159575414,0.03961420267721253,0.03358274461082203,0.02617212961945917,0.022207776907966846,0.0240968095204993,0.03120825200161991,0.040085043456072784,0.04581165284467706,0.044690241233005364,0.036744743039279715,0.026257556214524337,0.019686022126772798,0.02181134562495153,0.03243501414391797,0.04607216743556408,0.05533101011442254,0.05559271616807417,1
0.017607573831849667,0.026862876417338095,0.03260416776053075,0.03245338962163246,0.02604727598090762,0.014817269349536887,0.0016572576326916114,-0.01000216775881374,-0.016876747613750874,-0.016107074347580783,-0.006231970810337663,0.011562766820500146,0.03295019040541321,0.051734547546492635,0.06303368930059693,0.0653236852597082,0.05894224365514142,0.043794879464129036,0.019892070534287945,-0.01026167238993796,-0.040717788534318636,-0.06427403489277735,-0.0765261496561413,-0.07839952520998415,-0.07545805451799976,-0.07475154799632665,-0.08116233688442225,-0.09534246471436093,-0.11405686592710959,-0.132434673172915,-0.14630985985794587,-0.153424645227246,-0.15393770565798567,-0.15031214174186633,-0.14637907321754937,-0.145521057444209,-0.14868538951940258,-0.15492527834182188,-0.16524917165798686,-0.18577303158035943,-0.22518440456892727,-0.28511641754831724,-0.3484456518022023,-0.37505724806754626,-0.3129613177374082,-0.12389587203022011,0.1905558326546457,0.5803846594529043,0.9617544541664034,1.2451874898502424,1.3632547931506278,1.2886846548181725,1.040741937907963,0.6808285455826034,0.2966991990037238,-0.02441551790687081,-0.22535641254265684,-0.2972537264393931,-0.2765062677845675,-0.22070784017402584,-0.1771917191301067,-0.1647633069803126,-0.17743241332364687,-0.19997607923479446,-0.22040420713894168,-0.23329407026332555,-0.23717697579741642,-0.23213291679301679,-0.21988427187354864,-0.20417944948454889,-0.18975564810757733,-0.18000053793819368,-0.17481011045355543,-0.1711575598514675,-0.16596096717952222,-0.15793964054874193,-0.14743836712803723,-0.13559350862988095,-0.12376151407381743,-0.11350839162771867,-0.10642491154201936,-0.10286876878768278,-0.10096343403978002,-0.09741528291179809,-0.08975981452617514,-0.07831652778519707,-0.06557415096795118,-0.053639417099671065,-0.04308653449384656,-0.033493355730480484,-0.024003289603583687,-0.013911592542029321,-0.002945327916277135,0.008998559989586902,0.021962286689355563,0.03617191727699547,0.05213174343135228,0.06962284722876172,0.08700917006441627,0.10260333690096404,0.1167480705670327,0.13200173478960683,0.15066934612699218,0.17185541547450614,0.19119166335227383,0.2035369008149119,0.20620988609279334,0.20048847620301669,0.19056601242967902,0.1805610246761832,0.1716264903130483,0.16173270574902832,0.14796718379610088,0.12849607616634895,0.10322029893640185,0.0739116767099733,0.043306165398603505,0.01377168165734324,-0.0123864012982654,-0.032269378364086936,-0.04400876817469484,-0.049080299770352165,-0.05169621930580756,-0.05559981513791444,-0.06213998538298155,-0.07074644142448333,-0.07954564788753811,-0.0859163228703747,-0.08802810173444772,-0.0859431846085901,-0.08105890612787611,-0.07500568423473354,-0.06903330427264305,-0.06395556816010553,-0.06020229706374665,-0.05762243816630957,-0.05561837261708443,-0.05375212000999449,-0.052132939525006555,-0.05139024163882143,-0.05209944003445327,-0.05379205734187321,-0.054768610836940984,-0.05321629514286064,-0.04863528938961527,-0.042409879398327466,-0.03667555606116087,-0.032517466988759354,-0.029588334216254817,-0.026779053089618712,-0.02271277545880534,-0.01633058575834556,-0.007666383462972567,0.0018513028965213042,0.009985850136697687,0.014848674518807784,0.015982787066788972,0.014744729717099838,0.013295341362067484,0.013154911360331147,0.014973802802446331,0.018775605891231922,1
0.0016715580022454808,0.003085898038931713,0.0040407805908580265,0.00371368367403466,0.0020714747071464146,-0.0006048610075567451,-0.00349081622725464,-0.005037233794557051,-0.002904302037248752,0.005857939651623765,0.02266982671858998,0.04439303319196162,0.0635857677361846,0.07288902130065786,0.0696520413673187,0.05700786055453841,0.0409913493071723,0.02635835064510222,0.013978849505527831,0.0009599124111137377,-0.016568178493908885,-0.039942635608924165,-0.0669228840309968,-0.09358930525738475,-0.11662293706985062,-0.13425379347206212,-0.14624061423237542,-0.15380796075626868,-0.1594728199383216,-0.16588470916283793,-0.1743406108660544,-0.1843013239830503,-0.19377333750570822,-0.20045325099056682,-0.2030349881787003,-0.20137204677404263,-0.19640341149835938,-0.19163791247266143,-0.19536322611809614,-0.22010899176758164,-0.2761101112815051,-0.358856605154692,-0.4368721005059486,-0.4519728253917229,-0.34089502236940805,-0.07001298599019876,0.3393178086147396,0.8104289113497571,1.2350157408788547,1.5096159273198384,1.5689924366212546,1.4042406244188859,1.0633919590130085,0.6364182147482269,0.2274494830131663,-0.07856405040334671,-0.24324966582691698,-0.28343716970017385,-0.2541477471019677,-0.2150005500934764,-0.2011330770732927,-0.21511345391645426,-0.23996692822889326,-0.2587119719278177,-0.26502307424196353,-0.2614794791632035,-0.252646295636199,-0.2414495488056938,-0.2301020028952744,-0.2207078931356634,-0.213805864868295,-0.20774770297915784,-0.19985993941888883,-0.18834035648942454,-0.17368042278146908,-0.15798089857238404,-0.1432100292929161,-0.13052717998177754,-0.12021905440903916,-0.11192960573469456,-0.10547601200056934,-0.10086963016669173,-0.09729426952002078,-0.09321640131260872,-0.08729374680279584,-0.07847886470998133,-0.06639057667880095,-0.05221120335113022,-0.03862332078081515,-0.02834632391589251,-0.02249637506171733,-0.02013077902933952,-0.01857259109706674,-0.014107538973262085,-0.0036017223841078826,0.013790038522988133,0.036224568921361354,0.06021461912240285,0.08250835781585082,0.10142030054088316,0.11697773226614558,0.13054569720617246,0.14383984428732202,0.15774326426786375,0.17200736491772525,0.18574540899411732,0.19806828861773343,0.20808653144448064,0.21423373241358476,0.21416582490984737,0.20593164293741653,0.1893999419484953,0.1664815311941402,0.14010199924918995,0.11297169253572761,0.08674787772833423,0.06157546015387699,0.03630338831820955,0.00990065081924596,-0.01718958057293837,-0.043155552869197505,-0.06548628771971457,-0.08194748916639713,-0.09192571332856128,-0.0967927637783687,-0.09892210465338035,-0.10029490242186828,-0.10196608359329576,-0.104294526823418,-0.1064551236845175,-0.10628160285131732,-0.10207686198866336,-0.09439280756605929,-0.08553514956019512,-0.07751019288362011,-0.07054728513575204,-0.06365015053095091,-0.056182540489273715,-0.04829901263612373,-0.04030996909195615,-0.032513212683626704,-0.02569572433314186,-0.02123036633621527,-0.01984454025532361,-0.020232829993593087,-0.01995806051962691,-0.017733825163722787,-0.013907322751659151,-0.009719064997558558,-0.007148895917303787,-0.007922035760420986,-0.011519787808464048,-0.015178906219833511,-0.01622081284632413,-0.013496963340098405,-0.00717276963360476,0.001488284998387119,0.010389654737927035,0.017216012913020717,0.020150390638875734,0.018699961955527727,0.014183921753676922,1
-0.010860287807629777,-0.0034034773563883756,0.0033333865137099754,0.00698269627631906,0.0063401389067181,0.0023530847672265914,-0.0026854519660112017,-0.006333885656900599,-0.006461775623117673,-0.0014695386057921962,0.00948137775859488,0.02584870327291624,0.04450301935059645,0.05971998396431415,0.06604642784994931,0.06160733302626002,0.04845281668366235,0.030644268856777013,0.01192640107537114,-0.006020503732587829,-0.023361509320825206,-0.04041150903574653,-0.056636953407862886,-0.07094573122279059,-0.08224894746509619,-0.08991312885680017,-0.0943627777765158,-0.09714640872431203,-0.10015916791428012,-0.10485556780423021,-0.11170530724459737,-0.12008795198004366,-0.1289421531224187,-0.13738011402505174,-0.14473974935989517,-0.15041362588203844,-0.1536613837642851,-0.1545674877262463,-0.157230278780049,-0.17226385429528937,-0.2127584696131875,-0.28210574669794075,-0.3604012016249102,-0.4007682415111906,-0.3439307158460178,-0.14779445036589003,0.18453841051626843,0.5967221974696288,0.9960858388192348,1.2851659533960955,1.3929566146591188,1.2953263113917195,1.0206652589435599,0.6413805512627625,0.2528651245085679,-0.05681132037620317,-0.23668324979117383,-0.2877392931661057,-0.25461739641406517,-0.1982412828095478,-0.16430990281395624,-0.1662609653548942,-0.1908041341144344,-0.21666602433452897,-0.23047858498387386,-0.23075235302125202,-0.22264420890614392,-0.2117372281836845,-0.2011133520698733,-0.19145106441841436,-0.1825436041474356,-0.17447110799065138,-0.1675188527901927,-0.16140629525950032,-0.15534674332331094,-0.14888673139097133,-0.1418623157826114,-0.13381105421333897,-0.12434437398534919,-0.11381461133930862,-0.10313559996536031,-0.09340397374122711,-0.0857559595179152,-0.08078403747201436,-0.07779030171630433,-0.0747394683338146,-0.06907428059580702,-0.05926657765198838,-0.04597005410181277,-0.03138896116916424,-0.01746694895556762,-0.0048260748928051385,0.006559930929917971,0.01633288723882832,0.02408673868780963,0.03031506838732314,0.036586118303087375,0.04500355235431605,0.057049697846051475,0.07222986106572128,0.08821740275331563,0.10270133360714176,0.11464136201403807,0.12380843543254197,0.12990564863690698,0.13270641821526397,0.1330614247262556,0.13297807263651507,0.1342915955196749,0.13770141564845642,0.14225391738515378,0.14468443930153357,0.1404780192861818,0.1268091596532557,0.1043550793055227,0.07652506588958861,0.04740033233672108,0.020165671342167943,-0.003376379652130935,-0.022387376277472577,-0.0361082137651445,-0.04392853719116238,-0.04659877492383894,-0.04668672449957059,-0.04754456447571709,-0.051289764602617666,-0.0571542030460884,-0.06218994386864289,-0.06382314814602412,-0.061677295597927145,-0.05733359748423571,-0.05298272469831965,-0.0504719121691009,-0.0507554845882478,-0.053350944505909,-0.05639067998060904,-0.05753171279529488,-0.054748609703588205,-0.04697544008983001,-0.03523435404137358,-0.022695227722405002,-0.012914273399863974,-0.008109266042627133,-0.008110602457217203,-0.01004085602893677,-0.009908680314022103,-0.00553246889620526,0.002034902363013221,0.009636546782939879,0.014102193551456199,0.01409134541669542,0.010791839387834812,0.006870565537343565,0.004953076638795517,0.006499030533863092,0.01103370508550932,0.01674361799887361,0.022035950934514808,0.025705564118502555,0.02614631670690014,0.022047980011607782,0.013907285643249662,1
-0.0068319244290209954,-0.004808825893894234,-0.003404950623215031,-0.004561619671515968,-0.008418616652637224,-0.014151016112904669,-0.02131404628491129,-0.029472571897607772,-0.037304576214384606,-0.04244081661900194,-0.04188211289225559,-0.03342886119767975,-0.017940407433500904,-0.00044571664694518717,0.012103776461853503,0.015614178396380008,0.011519110424218468,0.004439721273867192,-0.002308768194000526,-0.008751773250485824,-0.01695317156763452,-0.02834999800994357,-0.041882619065675974,-0.054697855217516925,-0.06482783579918205,-0.07288977446946589,-0.08103508760196913,-0.09083599191032848,-0.10249268863989024,-0.11511855665161001,-0.12738035615468646,-0.13816181313063794,-0.14660740923226953,-0.1522832120502911,-0.15560681952469596,-0.15714694662871603,-0.15684409567751198,-0.15506988953320772,-0.15481510457629835,-0.16379632016105924,-0.19400352883916863,-0.25422901508621487,-0.3361080546532408,-0.40350144307333385,-0.39802831451029247,-0.2636933621481775,0.02181506376247988,0.4270073374738244,0.869833396433324,1.2444128937590218,1.4573616787970904,1.457017119380446,1.2477215265518087,0.8880713772952373,0.4734645207656152,0.10521468030345127,-0.14488623439100307,-0.25793483695028513,-0.26585297365782773,-0.2264761455966371,-0.1912417675628001,-0.1834706002271571,-0.19823465280835614,-0.21873385087774358,-0.2330645927257065,-0.23942333169553154,-0.24063764160136752,-0.23810913197104916,-0.23116113298950675,-0.2192644875077731,-0.20376554160290594,-0.18813554726374027,-0.17635541406781163,-0.17018332125531338,-0.16802367374530977,-0.1663913905437576,-0.16193628734897306,-0.1529829832008432,-0.1403802475987384,-0.12695399032597626,-0.11580853100437806,-0.10828124284630643,-0.10279514245212511,-0.09625086174607643,-0.08693203666744684,-0.07561134892333186,-0.0643840276126452,-0.05530240304854994,-0.049381205667146676,-0.045661912309165664,-0.041194925607872544,-0.033008228126965154,-0.02057826683422119,-0.005736438577339156,0.009575767596156717,0.02464707630804396,0.03964591548148688,0.0547340675744967,0.06944205636883483,0.08280915097396231,0.09445593337787168,0.10547123812687623,0.11773781391485683,0.13222407884983522,0.14816820215710602,0.16403622469053372,0.1788988128828361,0.19213319681434854,0.20181855898737214,0.20473574803235114,0.19863102429946047,0.18387236190045356,0.16276562345525816,0.13772587280858645,0.11012997633726188,0.08070393381493123,0.050728683452024456,0.022467321238028647,-0.0017896472030105755,-0.021180532814145277,-0.03682138798363234,-0.050744402127148515,-0.06414737860609061,-0.0766793224463197,-0.08715257620721835,-0.09446030454165721,-0.09814495345114747,-0.09885015272056112,-0.09792141689149425,-0.09609262172660159,-0.09313588287943275,-0.08923616830072108,-0.08589126586415367,-0.08450106600517154,-0.08436452607688126,-0.08265088508953994,-0.07655839979028325,-0.06584125553331584,-0.05288869439657582,-0.0401827895174545,-0.0287072623354618,-0.018581800099501503,-0.010049122451182092,-0.003997117035713239,-0.0015238148955576559,-0.0025793245484636417,-0.0054621717860172895,-0.00782750271055134,-0.007802658030102175,-0.004253506805111612,0.0030172671773695224,0.012495873817621817,0.021219311746883837,0.0267960231436658,0.02870005521256787,0.02777960678954649,0.02545168468009977,0.023123186941596017,0.021670278368494306,0.021277182327671035,0.02190203270889235,0.02352946294345379,1
0.025455053236981637,0.026146226153596394,0.02202399386885425,0.014798611261774328,0.007298137751574773,0.0017259019786932748,-0.0016775476321964865,-0.004652742019499216,-0.008455659238768794,-0.011406973387089075,-0.009764249080753856,-0.0006622478719024362,0.015093970327879857,0.03183822810382865,0.04165306738213412,0.03957083396262417,0.026313929360854853,0.006555002941843606,-0.014452811628054847,-0.03316936624024431,-0.04850230557819817,-0.060946061776455465,-0.07140410367597304,-0.081234840200939,-0.09191090286710868,-0.1033933211517853,-0.11369029317153068,-0.12067068027692873,-0.12427338400837826,-0.12702689149181606,-0.1323409439647008,-0.14183828803254842,-0.1541570550858189,-0.16638289295757244,-0.1760966779709519,-0.1818634605767443,-0.1830186226459838,-0.18081494200046444,-0.18113335011734497,-0.19594614666644766,-0.23894509067036943,-0.31335148920193084,-0.397073164822386,-0.43774163576949987,-0.36906813671388644,-0.14474945571046893,0.2301235328570779,0.6899920582095702,1.1280006015576318,1.4336231272188715,1.5306242764096516,1.4005269114673726,1.0857296378187369,0.6740063737301557,0.2695359033953769,-0.041898533684917916,-0.21993453270279784,-0.27582938031140064,-0.2566361262860365,-0.2172270785720785,-0.19478686557444289,-0.19838138974166028,-0.2165815271295544,-0.23412523864146229,-0.2434029872887496,-0.2443886839184189,-0.2394568924069334,-0.23084918847363622,-0.22035309110288687,-0.20892738341466213,-0.19690842325034458,-0.1846045748767035,-0.17264693548538979,-0.1623008360601791,-0.15490816726588091,-0.15006545907715116,-0.14501957478907954,-0.13671135504860726,-0.12414233885038345,-0.10939303578866962,-0.09678529232230228,-0.08970469341341047,-0.08764249004185858,-0.08682460542634095,-0.08350336439398956,-0.0762545936722355,-0.06576067058629576,-0.05366973954824898,-0.04168410758447076,-0.03064093862594493,-0.020300518960162724,-0.01016857396755513,-0.00023422674685102257,0.008967178678125493,0.017079448997490625,0.025049193894144072,0.03497377923971287,0.048337754055620054,0.06480413868907922,0.08256491707288309,0.09942551338744217,0.11388457364947623,0.125608455558609,0.13525547583224512,0.14392551462899483,0.15229219717597048,0.16012477036704398,0.1666554425679947,0.1707252889821392,0.17028779195911953,0.1627732653949115,0.14677061826437848,0.12328995220314776,0.09546319628040802,0.06687012928877058,0.03977975719693709,0.014972170766706722,-0.0073925465723212284,-0.02715327550747795,-0.043734448886281724,-0.056186046430007325,-0.06410835188743638,-0.06847343633924238,-0.07106481161731579,-0.07312531309971006,-0.07490120172386917,-0.07609631675954763,-0.07581501010309921,-0.0726048769031885,-0.06611196576441121,-0.058344322770930226,-0.052162916647914316,-0.049002448800409916,-0.04830215264895119,-0.048452193161567875,-0.048096440891158464,-0.046441317357202846,-0.04297416672394445,-0.037756790181701284,-0.03127724819156328,-0.02393347892374918,-0.01647965728218028,-0.010247756860105511,-0.006129523409439227,-0.0038313394059914926,-0.0023068692009852376,-0.00032613496220817995,0.0032602238772648923,0.008820152291962379,0.015223202598377202,0.020355363006634666,0.022638706063947363,0.022279219848521305,0.02140720676981329,0.022601817688797723,0.026487760074797993,0.03096006263880162,0.03291447646551457,0.0304274648546409,0.02398769988967396,0.016549084440040107,0.012036325003613407,1
0.01075560577511226,0.0068415396791220145,0.004376340217794725,0.004585835541852403,0.00859603941571648,0.015661734928481216,0.02199098470984554,0.02226607819784366,0.013345763622333742,-0.0023747232113086516,-0.017174266066666034,-0.02250226525617881,-0.014260604271248332,0.004645160375402921,0.025653195511559177,0.03951555695911421,0.041205292399427655,0.030757396512192513,0.0113650319031495,-0.012614615468644019,-0.03722660494949469,-0.059406808654488295,-0.07681664051592357,-0.0882412906538765,-0.0938817880903867,-0.09516089588860549,-0.09441714521811015,-0.09395646067362697,-0.09519521186072692,-0.09909474377946297,-0.10650460351800387,-0.11738397814684218,-0.13038749195448154,-0.1433066341267525,-0.15347916120498134,-0.158772142207853,-0.1593234614100545,-0.15792302595438393,-0.15929193171195052,-0.17097949799465195,-0.20342071229090505,-0.26283674874998814,-0.33765513529346924,-0.3896306586613062,-0.36178527709073105,-0.2038191186956258,0.09757536160693411,0.5010320269991044,0.9181595029958635,1.2443097556505909,1.3953459431576714,1.3342564896432025,1.0816689228689902,0.7089416210464741,0.31483857992149905,-0.007585385830774845,-0.20190202200435198,-0.26407150041183663,-0.2357747906576178,-0.1782596509684471,-0.14002813732507213,-0.13735066933757523,-0.15843761812351853,-0.18282274756549932,-0.1976409982060316,-0.201480421154276,-0.1993649905355188,-0.19619087520772596,-0.19352270032869484,-0.19045061696369414,-0.1860076733022807,-0.18044361299673128,-0.1745846390104198,-0.1687246247721978,-0.16256462127002994,-0.15584017772524972,-0.1484383223471639,-0.14036567471026143,-0.13235248706872685,-0.12588979500206046,-0.12195083194698286,-0.11994354616855235,-0.11800533292355787,-0.11425159335025631,-0.10807734760656793,-0.10006080309303937,-0.09053243415463695,-0.07899777698767972,-0.06499354449273446,-0.04913887847294343,-0.03338071868077799,-0.019563146460001207,-0.00721031722221626,0.006465545768897088,0.02410569761146921,0.046130165580469604,0.07012778731315268,0.0917536281077098,0.10712506064243223,0.11514340834851719,0.11798691927339347,0.11955931312002926,0.12314769670085939,0.13011974194256215,0.14029155811433258,0.1522859222348607,0.16328352362036827,0.16977300067650794,0.16907919165567992,0.16067964768499357,0.14669631822366233,0.13032191255567405,0.11350859149367129,0.09635684551065922,0.07766856479065853,0.05584981395271218,0.030112004312695347,0.001209863395529913,-0.02832156448424561,-0.0544365446864718,-0.07324368772126948,-0.08331504495014008,-0.08636604517375994,-0.08589102081489777,-0.08504247622362135,-0.08497728527857565,-0.08493643654811289,-0.08359679606914745,-0.07990303397608835,-0.0736654211536563,-0.06602340636325199,-0.058557691452434626,-0.05224962949039315,-0.047429458509202035,-0.04364972108000849,-0.039609022494610714,-0.033991914811814065,-0.026920199380170422,-0.02050361145052753,-0.01713224761376209,-0.017019653742952313,-0.017931293500803018,-0.017046620613704537,-0.012438878245028429,-0.003613260982588273,0.0078082567950053,0.01824968515421009,0.024205612342987237,0.02415571398632648,0.018925100464787042,0.01110856229522469,0.0038747045491789073,-0.00022540044821807784,0.00023841442218054936,0.0051395557535928865,0.012592020556210016,0.019960923828684803,0.02553285871533947,0.029757604600119905,0.03493639088309836,0.042428916939092766,0.04981009872115838,1
-0.0017960852521344377,0.00035102096712107296,0.0046349642338593885,0.010858182266922407,0.01703482226248285,0.020249624571858887,0.01825739799703322,0.01129537047450628,0.003234362398663034,0.00033735838363707117,0.007677883914153765,0.025544401954487598,0.04863114673486146,0.06896560904494888,0.07987357135364404,0.07797757733930345,0.06341183825089643,0.03905987093098098,0.008949375212446393,-0.02255574560913895,-0.0504256397892434,-0.07007402050148884,-0.07986969692948014,-0.08211746533977343,-0.08151975164844509,-0.0825925071900106,-0.08776379923605214,-0.09689193389472235,-0.10824626593774057,-0.12002834986951776,-0.13098331265758045,-0.14032984992303849,-0.14813069158776032,-0.15538272914159984,-0.16250776227120456,-0.16777753709931673,-0.16877195707435322,-0.16646898265857676,-0.1681226173793046,-0.18640203567935604,-0.23368676917372594,-0.31042476485207143,-0.3917307053822292,-0.4241829402710776,-0.34335198985456,-0.10822519115847583,0.2686635642726408,0.7164979076594513,1.1284241054280657,1.3980588652508688,1.4555213170558845,1.2896119878319696,0.9498379750202524,0.529854457510162,0.13651577349183083,-0.14615890092396833,-0.28345677407829994,-0.29563162296944007,-0.24038914274480552,-0.18019078525602983,-0.15248751947481404,-0.16053241405983765,-0.1863979120486855,-0.21095986131001432,-0.22499962690590225,-0.22840272400928244,-0.2243406397097607,-0.21550253472733072,-0.20406480973381674,-0.19253000281114097,-0.18294473975887926,-0.17540032054715066,-0.16831713369122045,-0.1601093812681035,-0.1499425679668084,-0.13790188869711967,-0.12532229906903394,-0.11427102818372148,-0.10609628801336483,-0.10034007715136581,-0.09506582378120644,-0.08847778979690563,-0.08012230941802047,-0.07071692624252507,-0.06154931657866097,-0.05392772027996196,-0.04864868855798774,-0.045387236561238095,-0.04235003243893934,-0.03709087357175372,-0.027939195384105716,-0.014852181282677894,0.0005930519522873573,0.016043576836541073,0.02973374093684389,0.04120880317139986,0.051029538668467364,0.06062305464599341,0.07206712545935551,0.08671659482789164,0.10388701243882272,0.12144835541465203,0.13727768470611992,0.14989879996785926,0.15911549474901188,0.16634750853472843,0.17306138707563573,0.17877554906851856,0.1810471005585406,0.1772273511373298,0.16645897805029358,0.15045503160228946,0.13204178989788476,0.11230242357307729,0.08948220975074926,0.061144322221727235,0.02693581882979443,-0.010223248373507333,-0.044796261371423764,-0.07119230462673207,-0.08638641665153765,-0.0907818782184121,-0.08785264623326489,-0.0828525219479829,-0.08038191067323047,-0.0820214208007129,-0.086276877769175,-0.0908632383002193,-0.09415974138197697,-0.09496685861830978,-0.09260359646433577,-0.08723240616786501,-0.07966930228295052,-0.07117232258843836,-0.06313344367397637,-0.05647650941729366,-0.05119254801002899,-0.046557591184476575,-0.041811732171418974,-0.03671630036459469,-0.03160365461777903,-0.026751308668473868,-0.022276604307802116,-0.018715798074685118,-0.01637209246026945,-0.014303517944932587,-0.01115105290063639,-0.0063589921948598305,-7.405410314061632e-05,0.007230994171801123,0.014717762879097948,0.02107073176114911,0.024843723106353313,0.025555511308841875,0.024143690527304633,0.022047871362998243,0.02048427523669711,0.020400398529413402,0.02215274756856361,0.02524519702799214,0.028878344180441627,0.032491712631258614,1
0.00950687235246181,0.006872456445465785,0.004135710261768989,0.0019545109290168825,0.0019283934583441441,0.004760163956999208,0.008222943338442543,0.008159690242591788,0.0025372643278990087,-0.0058322568189650625,-0.010724371252277699,-0.006550383949129286,0.007896737934418856,0.02808524388006483,0.04582739571012665,0.053832549379888406,0.049403127966929375,0.03445570657030546,0.012773438345008697,-0.011962919693755764,-0.0363233490156641,-0.0573760694314687,-0.07336812574255334,-0.08382062623203625,-0.08928857367087394,-0.09133661124364402,-0.09231605883420868,-0.09460170836307107,-0.09979217306598435,-0.10837688072960243,-0.11958897462917492,-0.13126863055742644,-0.14063716261160053,-0.14610976251120306,-0.1480403286843487,-0.1475689793690116,-0.14579078350369054,-0.1442692004198222,-0.14642675268851146,-0.15959116134272933,-0.19457018742983057,-0.25841894387734843,-0.34163718474449317,-0.40865620511970036,-0.4030102661191218,-0.27063464714280666,0.009206873319817883,0.40398564052679703,0.8325672157405739,1.1921285641708566,1.3921955901804013,1.3822805337602506,1.1668602246617414,0.8043406220668309,0.3898206991743365,0.025570032599792694,-0.21347819734435908,-0.30581166256025405,-0.2856825472415691,-0.21844058943865857,-0.16370463161863244,-0.1487767504125733,-0.16645484229766466,-0.19349350805605273,-0.2119292495572574,-0.21763601503339797,-0.21509838401558018,-0.20901868186362596,-0.20121277238182558,-0.1921458881807733,-0.1828678807148354,-0.17493404579408406,-0.16878845918530275,-0.16303738480569904,-0.15581059988412033,-0.14646909391403443,-0.13579590401779296,-0.12505577200846732,-0.11526911987638866,-0.10696976766628158,-0.10004241390966204,-0.09396064401490384,-0.0883384311181164,-0.08299702540551056,-0.07758214428607683,-0.07144637459127327,-0.06397761540309556,-0.0550116389135001,-0.04532325702241061,-0.03633519044060102,-0.02852961209993969,-0.021039661520455583,-0.013051781316304863,-0.004211396553700269,0.006156664503493316,0.019051457376216874,0.03496978911835698,0.0531243120886754,0.07134048971957022,0.08710163421820316,0.09915893698022706,0.10852741419961834,0.11779861832955885,0.12891380772314306,0.14175389874190905,0.15501750572293224,0.16755126943344587,0.17821763858454961,0.18537678668745364,0.18747289766115852,0.18370913605513076,0.17354738935652825,0.15643371328958103,0.1329690427061648,0.10554333999363005,0.07718739496348621,0.050054111388526785,0.024800721483217294,0.0010331490635610181,-0.02179368708230579,-0.04340967713289243,-0.06243060924923047,-0.07755716706436436,-0.08867130558072545,-0.09620889342311997,-0.10029383019689614,-0.10097688580702774,-0.09862005461536658,-0.09394365149705872,-0.08815400248969578,-0.08286740895749768,-0.07947287764502298,-0.07804520126926642,-0.07682282874905559,-0.0732824050673146,-0.0659952106996301,-0.05579745545590244,-0.04529449413714699,-0.03691110301734551,-0.03148780498162883,-0.028574931274001777,-0.02718432742367534,-0.02585981503606481,-0.023145589054418353,-0.018824288295414285,-0.013845326949336146,-0.008868832527533614,-0.0035650650441750517,0.002611679585486604,0.009038939126299106,0.013655398491783096,0.014666507108742542,0.0126517180941955,0.010581631067810264,0.011274254794092319,0.014874979766277528,0.0191764941948157,0.02217568745927257,0.023519147341392734,0.023466362617990923,0.02170371903320658,0.017992893289780026,1
0.012401628638579191,0.012656809065796077,0.011425849177177781,0.010296571937349421,0.010741248637133285,0.012332386303213518,0.012805359787461194,0.009572124996833346,0.0016567357393836217,-0.008396381389213458,-0.0147596492724244,-0.0121696590594452,-2.3679830201410196e-05,0.016841011974536798,0.030541249549961024,0.0343898474781251,0.0265432790607254,0.010310645448600646,-0.00871321668344592,-0.02633093983557291,-0.0416978856864119,-0.05618059789004978,-0.07082142884700164,-0.08507801027689202,-0.0975396297686073,-0.10764705636127339,-0.11619737614872183,-0.12393094425603676,-0.13052467082167687,-0.13541926537046267,-0.13899198962358053,-0.142581672213455,-0.14767936401112874,-0.1549606785246515,-0.1637511829058449,-0.17235194644261578,-0.17886422856767165,-0.18278405298220995,-0.18810662015394977,-0.20557741513335853,-0.24867428275261125,-0.3214479266612625,-0.4042240439106616,-0.44816941336641597,-0.3886633835460959,-0.1763328384460538,0.19122205120819027,0.6566775464533563,1.1170320981532145,1.4580102653267502,1.5925409414517597,1.48800160612628,1.175851640400203,0.7426502727699527,0.3025426560716792,-0.042848781645133525,-0.24028984808049236,-0.2978484836384793,-0.2690519987919629,-0.21890926283067882,-0.19169731429662684,-0.19766813422665208,-0.22226028924191665,-0.24598859562952446,-0.25823758948592446,-0.25842062883402933,-0.2504858039875332,-0.23829435391434825,-0.22429844132206259,-0.2102602883881986,-0.197739862864236,-0.18751186096937417,-0.1791654539573794,-0.1716935275527918,-0.16413788417320896,-0.15577151652300614,-0.14625716084855353,-0.1358435885655515,-0.12546203437338543,-0.11621338503620748,-0.10831095129232574,-0.10091396806662278,-0.09319770841581473,-0.08528038681893063,-0.07775743165252058,-0.07067237104083074,-0.06362565135505974,-0.056261280344453615,-0.04816210544433358,-0.03882872628301729,-0.027902845219994463,-0.015649855780896917,-0.003173790889084826,0.008393637509195289,0.018650567766321756,0.028177125622483718,0.03873076371909713,0.05222995488081446,0.06884704652003057,0.08684128363485091,0.10407798990549152,0.1188407325708802,0.1300634916676491,0.13810377604966506,0.1449227374523189,0.15287615197498672,0.16331091898502015,0.175709894507785,0.18712465464480652,0.19290545641142792,0.18924718075926591,0.1752226201713775,0.152688776991247,0.12469740210940757,0.09367942114727136,0.06098425478336563,0.027806402460505145,-0.004310372829284526,-0.03392940592945935,-0.06012100981841603,-0.082712423872917,-0.10264751090958167,-0.12130650238144368,-0.13850331370362415,-0.15122832963385247,-0.15493151623260032,-0.14684965323128696,-0.12854257890746107,-0.10528416272291109,-0.08300234808720303,-0.06518387340248304,-0.05212716383833935,-0.042719707278659085,-0.03621496969266294,-0.032316594353964355,-0.03024472331700916,-0.028382942350047485,-0.025207010054638226,-0.02005206652297925,-0.012820887870091262,-0.0040940466345092946,0.004327671900462243,0.010071088115708513,0.011753199871753826,0.010059642523668061,0.007377179324730986,0.006293967164682777,0.008298173877941177,0.012916235055081007,0.01785383946417819,0.02079775622658763,0.021074071786022365,0.01955588291086558,0.017568218141318488,0.016146368959946963,0.01582657069285441,0.01650452689319224,0.017665602543063087,0.018909578793524666,0.020009843921239688,0.020608778560011892,0.02029484165659217,1
0.0015984162240972736,0.004261686159291905,0.00650484224701515,0.007625524418529333,0.007627864927746744,0.006031953747746764,0.0018720815346661844,-0.005349437885548694,-0.014783833961368354,-0.023613328276004562,-0.02729912499302631,-0.022096092441923607,-0.00841956451835436,0.00868030233619979,0.022131854564452127,0.026288255979847127,0.019864091019884646,0.006230853838536177,-0.009696882910952899,-0.02492511380139495,-0.03926560290600141,-0.053542368976378506,-0.0674988787643207,-0.07996306947199348,-0.09045026847832005,-0.09971498061908667,-0.10888489068936133,-0.1184200240353473,-0.12770512199335893,-0.13544203389858575,-0.14086599729662408,-0.14497169113803662,-0.15001074667403225,-0.15712213515135928,-0.16508816131178733,-0.17171127894783472,-0.17559696006878134,-0.17782891911967524,-0.18436114402330864,-0.20644470758765832,-0.255049087720403,-0.32887104951890545,-0.4018537229080943,-0.42147596002398935,-0.32652272620475,-0.07920700859486413,0.3076692645560467,0.7659404871171678,1.192279756573193,1.4826511933130175,1.5657480449998207,1.4246519021612654,1.1013222143300925,0.6824525116705982,0.2710206016121416,-0.04759171313127407,-0.23240390363121105,-0.29412849707325606,-0.27998627600325454,-0.24506981732859037,-0.22588487344698116,-0.23045188318736975,-0.24745662946049002,-0.2628601316868261,-0.2701502419258615,-0.26981657402861436,-0.2642057146405008,-0.25513185310850384,-0.24421720579568443,-0.23262905014291807,-0.2204895164777151,-0.20737793161712467,-0.1932517163893725,-0.17901752884933653,-0.16625259796395195,-0.1559720061958892,-0.14784543418767473,-0.14064966772368373,-0.13299030922950297,-0.12399929318362768,-0.11402170418588141,-0.10389532651315186,-0.09358016529360806,-0.08287715848748436,-0.0729265270453449,-0.06549820074345544,-0.06099250314180597,-0.057524626282025634,-0.051937907905242185,-0.04212048514327816,-0.0285721782793932,-0.013816232590902096,-0.0004591314053866806,0.010575910039481069,0.020458454486134175,0.0311071395842654,0.04328413347388292,0.056252380379395714,0.06919773153203865,0.08200600674791693,0.09489690899797207,0.10862118888431754,0.12414607398704343,0.14095654502607183,0.1569210326107841,0.17025627381698466,0.18028399734236755,0.18654789551509007,0.18847001790959358,0.1856827266578241,0.17807457423027645,0.16559828588941652,0.14824794250342377,0.12630768135376952,0.10058993390282067,0.07241986955612573,0.0435566501660627,0.015962242865562495,-0.008715451954276223,-0.029576763676950713,-0.04653888499060391,-0.05995179071811631,-0.07037300569220203,-0.07871776989369343,-0.085700382199379,-0.09125546030443503,-0.09499478615176082,-0.09628904090830076,-0.09406608109961312,-0.08767463962549872,-0.07812476401217401,-0.06838235975064735,-0.06174210183803505,-0.059316178131420885,-0.05917552076758674,-0.05783802464751529,-0.05309047556803338,-0.04562570310949143,-0.037745836316350784,-0.031028261506093467,-0.025391286819958087,-0.020047675047744577,-0.014869629866157115,-0.010371389927793965,-0.007068653604365845,-0.005121218995451116,-0.0037949151792310634,-0.0016088541854149246,0.0022802366987040076,0.007144935843087922,0.011417212525913491,0.013923370895752248,0.014271793085655265,0.012909590400180866,0.01093928772102216,0.0091601282322901,0.007658876668668799,0.00663553485927254,0.006854349835875319,0.008869777898842971,0.012192255013987852,0.01546429784305217,1
-0.043864061368214205,-0.040359369689810555,-0.03463367996467183,-0.027501460077007125,-0.02005982931922414,-0.014001689623905151,-0.011300117745146106,-0.013370947012354594,-0.019944904508027925,-0.02812178050783614,-0.0326525229042244,-0.02842821074210182,-0.014476393736090519,0.004253805047368441,0.019792509454338504,0.02598386004360153,0.021244207351697637,0.008191763640020649,-0.008815041863011559,-0.026193452420159292,-0.04195965642160453,-0.055302534190558174,-0.06614992527610793,-0.07501872156212622,-0.08289056148464018,-0.0908604821988652,-0.0998149185659146,-0.11016590125470661,-0.12143465787720584,-0.13245206938864196,-0.14217931449230517,-0.15004325841126906,-0.1560514869196596,-0.16092733362399392,-0.16548845907554488,-0.16970150584123725,-0.17308947079654016,-0.1775164594759236,-0.1903184808456769,-0.22341963581565047,-0.2856196580405074,-0.36895512114450546,-0.43700540315945047,-0.4290188107496951,-0.2859340314910246,0.014836270026940407,0.438768597513878,0.9005657371845556,1.2924144281934515,1.5193357886117567,1.5282923935500878,1.32293079687932,0.9610290446163045,0.5365687686329974,0.15064603548915254,-0.12111820052228284,-0.25251276441683557,-0.27033102314536717,-0.2335941266093497,-0.19893227480251974,-0.19386886849335522,-0.21373625369285118,-0.2386052742775267,-0.25302590520764945,-0.2543464027200717,-0.24825515217602473,-0.24035093363045912,-0.23229972513380806,-0.22336834293462599,-0.2128628288962619,-0.20098239941545792,-0.18891606852802237,-0.17835802861614197,-0.1701151465992968,-0.16321541377161913,-0.15580220559479202,-0.1469267944068017,-0.13724482407651573,-0.12789438316584167,-0.11931551091878795,-0.11152721655530913,-0.10427276880501646,-0.09630347295939033,-0.08608569123576175,-0.07365225874826353,-0.06091533531622491,-0.05050291617445432,-0.04428639486444916,-0.041902471630802754,-0.04033950524454168,-0.035622686776788266,-0.025546377928841225,-0.010748448059119897,0.006550847804730052,0.024277359092123127,0.04141755978755608,0.057529353048746706,0.07163714318186384,0.08259513851828301,0.09065058239097737,0.09779903810627433,0.10666649359512094,0.11949760172249449,0.1371107708934159,0.15783960499473507,0.17787144117603396,0.19283765255574298,0.19958566793654392,0.19727188709110402,0.18718888326749805,0.17191405288838293,0.15411855083076728,0.13514412612383717,0.11460348522987207,0.09125856963388856,0.06429432661611778,0.03457233540829038,0.004751875209474683,-0.022297405976909133,-0.04481447646509772,-0.06189348184819372,-0.07340914966810494,-0.08073683898273375,-0.08612397109394446,-0.09070034885345533,-0.09380847133972706,-0.0946325346090176,-0.09384785244289173,-0.09273878548799806,-0.09126238800178627,-0.08827532101152354,-0.08325663687159035,-0.07691721038620021,-0.07039051425530295,-0.06432216471319968,-0.05857172612781129,-0.05231893373634619,-0.04471115750222063,-0.036194276128798414,-0.028891275433400372,-0.024842209039667617,-0.024173689187391434,-0.024965662312550273,-0.02423289210455871,-0.019545858595822165,-0.010845101735016936,-0.0008340678832258995,0.006932105252018659,0.010500953846172166,0.010539781685080407,0.009472083792442467,0.009650705254108338,0.012212121709982935,0.016551315889344123,0.020149479948492033,0.01999992035423343,0.0151662011502277,0.007968391600770782,0.0024783302043896544,0.0017772265460653282,0.006478967046501796,0.015161211441764709,1
-0.00024164809764154168,0.0007645985284860587,0.0011252519516559058,0.00045377336113242597,-0.00027991582148895986,-8.01407261722401e-05,0.0006034448750069606,-0.000177201519637496,-0.004206250327629583,-0.01094444132386364,-0.016426129876232428,-0.014897630390428662,-0.0033793974144509468,0.014642037264511614,0.03077432186118126,0.03743636991269529,0.0323738478059792,0.018705853256437414,0.001669042248420606,-0.014806685326778146,-0.029356848566941648,-0.04229703274165463,-0.054364880931571866,-0.0659899792988857,-0.0771793493533164,-0.08791441331562687,-0.09804230727802651,-0.10679076005874842,-0.11321618394007422,-0.11730678743213836,-0.12047190356657199,-0.12482799997254403,-0.1317407218591814,-0.14077331046996827,-0.14995089250369403,-0.15718519030496586,-0.1613707223104034,-0.16274654331510754,-0.16439923057084457,-0.17471565105408302,-0.2061883549145685,-0.2663557627391414,-0.34395648113271643,-0.4010991382145526,-0.38129471911380075,-0.23380135247978057,0.056860472874737014,0.4541723646650536,0.8772168350929446,1.2279319509680668,1.423155084434036,1.4188921525913327,1.2213596835509373,0.8842912996141177,0.49333561574117984,0.13917501644587946,-0.11281752552259973,-0.24214543594334403,-0.2725067531811882,-0.25248382121275237,-0.2275660023470103,-0.21974026534557878,-0.2269593090890456,-0.2375374505986615,-0.2438675519396647,-0.24561377122383893,-0.24505392646967084,-0.2433065963026193,-0.24017543601782593,-0.2349932876663428,-0.22742965006394922,-0.2175394689911941,-0.20514765768437104,-0.1903238516903202,-0.1742635539756793,-0.15899452685626594,-0.1463575260893411,-0.13664528009377722,-0.1279855575818517,-0.11827153976141584,-0.10748945082754865,-0.09718306337830732,-0.088731288234352,-0.08239076186551857,-0.07688440520780304,-0.07058135017071175,-0.06347421106324502,-0.057273604658743246,-0.053467795430443374,-0.05122211459568718,-0.04755099395172979,-0.039873846838545696,-0.027807008958798618,-0.012796529346026417,0.0028839712878548154,0.01706121728548979,0.028778561431601634,0.03895439316310892,0.049953809730724746,0.06462693615399591,0.08507888015647051,0.11091723899116004,0.1385858853250997,0.1632570879499813,0.18145100321345312,0.1923055199725685,0.1972811849782648,0.19856115236969674,0.1970828006613979,0.19189225651644773,0.18154037355737357,0.16597377107670813,0.1466043047431687,0.12457230960254814,0.09941559903059845,0.06982875895294718,0.03590458115590644,0.000409093887616372,-0.03202135368932918,-0.05685949905584779,-0.07168607684477869,-0.07685173777956338,-0.0745360844447197,-0.06776865447743324,-0.059999347939714356,-0.054252962776022456,-0.052231190071727954,-0.053991357454231816,-0.057815786345398676,-0.06089742427680227,-0.060938471953024737,-0.05747184261348193,-0.05220377787168576,-0.04777157668211169,-0.04556418287323197,-0.04482963393618011,-0.04384603328290648,-0.04154545308873398,-0.038062719086936814,-0.034368514483321816,-0.03119893030297068,-0.027924226399258217,-0.022985572679174296,-0.015438722313468193,-0.005883557864936806,0.003718038932148329,0.011093837077574007,0.014573305166572906,0.013542308606221699,0.009189055185780332,0.004679766878601933,0.0035786184993870616,0.007632115820187214,0.015617140922173103,0.023694492810334714,0.02737791889064688,0.024687517390892907,0.017708679284412738,0.010480519810981885,0.005747122297584081,0.003699019638894574,0.0026163782104221818,1
-0.0033380074167259585,0.0015290059353557485,0.004723622013632261,0.004624456952687259,0.0022798410479992317,-0.0001107495472338078,-0.000989868294163104,-0.0005900858613391634,-0.0006916655870398817,-0.0023705550977248654,-0.0039287054148881406,-0.0016672224064013825,0.007082846481250148,0.02106371840115624,0.034754431387330344,0.04153587107547062,0.03774142353570833,0.02426412562122659,0.005399021010989978,-0.013711083309289435,-0.029661607530918687,-0.041879238016281364,-0.05154358485412304,-0.06002957354284563,-0.06873137008078324,-0.07915780661195183,-0.09184052325241834,-0.10533032181056727,-0.11707416890999048,-0.12551589381660824,-0.13114096298188538,-0.13578463588749995,-0.1411730230693075,-0.147812338866662,-0.15511633077025794,-0.16221723276340366,-0.1684050225064512,-0.1735573553950729,-0.17968993001418496,-0.1934791334626314,-0.2258622058785958,-0.28388987635248814,-0.3569042442655089,-0.4076114579405875,-0.37970530857090223,-0.223515984459499,0.07378609578376491,0.472433381119576,0.8895157181501793,1.2281832171260574,1.4092301287462818,1.3920171651010451,1.1831950753790572,0.83491887460978,0.4321374517989419,0.0689102186177772,-0.18196084821903996,-0.29432313738177257,-0.2945873436477803,-0.2424152226682312,-0.1962129227546756,-0.18501788477818407,-0.20423593839858434,-0.233000869098427,-0.25428686993196326,-0.26261285865245126,-0.26031304012650347,-0.2514852631961907,-0.23938502553065363,-0.22655034289917567,-0.2146838531966461,-0.20436848674922542,-0.19526019953746115,-0.18614702132919617,-0.17546139791734594,-0.16221341486112606,-0.1463798648519488,-0.1289780389887905,-0.11180395745045006,-0.09646446581182522,-0.0838928093977846,-0.07476986641950899,-0.06928332356097727,-0.06636021679067308,-0.06394529541561321,-0.06022432865310769,-0.05418248753615998,-0.045280263758087955,-0.033764401177571984,-0.021067798875144914,-0.008831772776663263,0.002223202417055984,0.012012097529176504,0.020487456485342018,0.02815167994881818,0.036714675066871434,0.04834694295186628,0.06362699489813674,0.08056491673247128,0.09646161900331959,0.11024876109463858,0.1225586239421954,0.13425753972227597,0.14565498232072638,0.15689470661887947,0.16804804635013296,0.17856764932540345,0.18713556580827168,0.191971262985991,0.19139775935971748,0.18442758781882101,0.17092894434748362,0.15180189500947228,0.1286484831039845,0.10229345089199071,0.07276445791987948,0.04141511040125874,0.011115797512369723,-0.015947455132029272,-0.03898510236893844,-0.057624641294511336,-0.07174247875260253,-0.08193099409460025,-0.0892718299739268,-0.09475389148059288,-0.09877871854721108,-0.10073730467978391,-0.09955920131196166,-0.09516976863203147,-0.08896720436079658,-0.08294801135721336,-0.07876398866929729,-0.07705309768276764,-0.07713081468903299,-0.07738985132529931,-0.07610153468012734,-0.0723709023347808,-0.06650203410827114,-0.05881301189298254,-0.048809042827935745,-0.03670064628884154,-0.024804911579808197,-0.016340436352100248,-0.013232169306726318,-0.015190824859359735,-0.01993464012169481,-0.023741334967143486,-0.02295939662766844,-0.016365733374582823,-0.006117518162911182,0.003819714740643399,0.010515550694677125,0.013940780194000956,0.016017648386905607,0.0180179911847057,0.01970334791361192,0.02061469853832023,0.020884370392799813,0.02090931625745186,0.021096282812985607,0.021837785679864295,0.023074219445995123,1
0.005410165676497984,0.0015684187734064635,-0.0027169818928872566,-0.005456853800109144,-0.004837703201198348,-0.0011698643988513702,0.002855849089436334,0.003894222119822868,6.173409128484549e-05,-0.007490042365029129,-0.014255854814408234,-0.014615466080122297,-0.005999894775810601,0.008574343706157605,0.022302488171601804,0.029069538220217846,0.026581243681722825,0.016067415471903067,0.00018708881124377113,-0.018461995879375543,-0.03790793463958315,-0.0565622762850181,-0.07267208108954036,-0.08470179027948238,-0.09204305977509837,-0.09522003700995778,-0.0963603189284547,-0.09898910719524179,-0.10581893378275246,-0.11678167626886729,-0.1296057888413743,-0.1418215300327219,-0.15204373039577718,-0.15954640651148502,-0.16334692747209167,-0.1630142262843009,-0.16029140185875088,-0.15925347531712075,-0.16641677560854834,-0.19140200901731438,-0.2428989174963512,-0.31741215793817107,-0.38818949703787653,-0.4051053417185116,-0.31200087078664773,-0.0769352543039467,0.2831286933053788,0.7009658956119298,1.0816014888723997,1.3347712879461961,1.4021623162784826,1.271693018006253,0.9786314444320758,0.5961033394825186,0.215970084337329,-0.07903954470092509,-0.24361610535382294,-0.2835682881916592,-0.2462214542550449,-0.19219967355170586,-0.1640903652898123,-0.17092947275612508,-0.19650074150278404,-0.2201412166846829,-0.23137944587615533,-0.23079342730718688,-0.2236694304701783,-0.21504132758514202,-0.20767038274747462,-0.20153745118596744,-0.19500259461949007,-0.1869414978766578,-0.17766882043120663,-0.1680143441813029,-0.15819509934625678,-0.14799491610538978,-0.13772145674756067,-0.12819779893399352,-0.11981982631226792,-0.11246263573052098,-0.10619447482626981,-0.10113922406130954,-0.09651417725891849,-0.09075904880777352,-0.08286542009893225,-0.07286493043483243,-0.06154050839318745,-0.05011020692435965,-0.0393857735046943,-0.029329830995745616,-0.019642336151903594,-0.0101797909841581,-0.0006480659897607835,0.009897255289963255,0.02273055489020435,0.03818551701840754,0.05539741091130139,0.07336752926017026,0.09104701589153563,0.1070516637484144,0.12064568899754305,0.13213488356896072,0.14194376934390165,0.15051384834777137,0.15896504369159795,0.16850609746305886,0.1789441039942149,0.1885655503422396,0.19533319558929235,0.19728240872960986,0.19250891194634936,0.1800046815769952,0.15995691207819993,0.13329968988339236,0.10225680197802892,0.07068071605475236,0.04207664649562791,0.01726450774181704,-0.005361021714057945,-0.027650682378044838,-0.050019250177029545,-0.07117271882126008,-0.08889146778156894,-0.10112635473955722,-0.10684219314928153,-0.10656942603821369,-0.1022823420958404,-0.09642149231929127,-0.09101258754381675,-0.08744973696707903,-0.08640690401034336,-0.08774261846594424,-0.09045065305274495,-0.09247866277865185,-0.09133297472274773,-0.08569209075775516,-0.07627246750849655,-0.06513688684651421,-0.05460660750451488,-0.04666418976937567,-0.042204827003942604,-0.040241011431515136,-0.038542995935313816,-0.0350971755300154,-0.028848198872055364,-0.020205210781701025,-0.010954824356441094,-0.0029777026986193885,0.0026779409075080793,0.005905356536613527,0.007460728381491985,0.008466144198187562,0.009839909202021277,0.011983415560165071,0.014585869034548012,0.017149935240137984,0.019659900746246205,0.021928443382771192,0.02294482351972426,0.021836970029479284,0.018995957274237103,0.016006013350086754,1
0.005566231797487126,0.003138013729364124,0.00020390228624629246,-0.0017301432365883513,-0.0016441850884897084,-2.8069880024616633e-05,0.0012525377443209727,-0.0001229207304621928,-0.005204409849702088,-0.011901526428754632,-0.015436687201149579,-0.011565610616033275,0.0002966975203181223,0.01614338796201479,0.029219920722840173,0.034102860204082916,0.02988134807138019,0.019645775155597473,0.0073667505326951875,-0.004813719918567409,-0.017302759235306723,-0.03199476857607663,-0.04995356951163137,-0.06936208670775074,-0.0863590594288936,-0.09826014894324146,-0.1052199301635386,-0.10930862643578604,-0.11333485810638391,-0.11982096112313209,-0.12962091560263847,-0.14160241034620438,-0.1538152468148911,-0.16458108566628327,-0.17289139387194963,-0.1783495288916329,-0.18079364519197486,-0.18061497941857635,-0.18112644341903442,-0.1915229584455598,-0.22537530644743017,-0.2909735497074496,-0.37648249458101846,-0.4400570911824391,-0.4175870519336123,-0.2519300771775165,0.07163632906209169,0.508062514746611,0.963697668622006,1.3281493042009669,1.5116397170770646,1.4729590754128163,1.2296810900007307,0.8505317923923645,0.4332833383070091,0.07370077315730564,-0.16472142474511325,-0.2684602991420272,-0.2711729135765984,-0.230924602158595,-0.19850338772627346,-0.1952626665436093,-0.21362265551687226,-0.23517064268734533,-0.24808243631050958,-0.2512955134265138,-0.24841981307366318,-0.2419658579594025,-0.23274086132400748,-0.22150036700937037,-0.20969597724862135,-0.1988439299521217,-0.18948348380113827,-0.18104770662964037,-0.1724841957712179,-0.16290414486396754,-0.15231648258191893,-0.14159646863223083,-0.13122602924229446,-0.1208764444467131,-0.11054860478246092,-0.1009557689475918,-0.09269750743568332,-0.08602871496627108,-0.08096620871151904,-0.07662367480217261,-0.07099339194839048,-0.06236590310574687,-0.05098744201553761,-0.03876872458619642,-0.02742193088719653,-0.01750576922855058,-0.008586185000644644,0.0006886655866709251,0.01201572372781419,0.026355881733758014,0.043372208045768953,0.06150592546528656,0.07871471916765622,0.0936461279033814,0.10629470781830636,0.11765092902820713,0.12880013912276142,0.14042646746992318,0.15304026752489017,0.1670465685958101,0.1817251554156302,0.19414378299527868,0.2004884529995019,0.1990959658647255,0.19140133697961761,0.17992056195473455,0.1657462698807144,0.14779925628954896,0.12438797099701192,0.0955320658453323,0.06362464203036791,0.03213754075837197,0.0039387916305272455,-0.020074973971885908,-0.04118945980046673,-0.06115526872810561,-0.08045018494046802,-0.09818568246111073,-0.11247198830734328,-0.12081246382321785,-0.12176861738769384,-0.11662525195280826,-0.10850992621618588,-0.10045122201789686,-0.09455368128785065,-0.09126676373157305,-0.08918226169675883,-0.08643299137247962,-0.08191169105992088,-0.07551032783856765,-0.06797404210844944,-0.06022708498717943,-0.05274191104403055,-0.04568305833979303,-0.03938626638008457,-0.03434521833240403,-0.030672324211930328,-0.02785515097463239,-0.02489394131797564,-0.02048501738770918,-0.01368701356535708,-0.004943693278627502,0.0036924432662178604,0.00964502850395719,0.011341475953255282,0.009177934179768834,0.005421398608266454,0.0030317988329334276,0.004055309410623969,0.008597948374748633,0.01523025030174434,0.02219766639647181,0.0278907253570847,0.030954974656079087,0.031108324842883908,0.029442851449287544,1
0.04622674050051168,0.04363613066818133,0.04280317306046597,0.04330931470051028,0.04444796267608358,0.04485784314685134,0.04227331169283439,0.03441167548376237,0.020681389647898722,0.0034746278671719446,-0.011988739441707731,-0.020057622131373888,-0.018138699777214103,-0.008563455701666476,0.002523249108729814,0.008258475554454756,0.004135904247815857,-0.010218826642882782,-0.03123215536414509,-0.05374019726763796,-0.07368890898081923,-0.08904788856056282,-0.0995784550529088,-0.10657451922170183,-0.11223558344631021,-0.11874475442530129,-0.12748168108608998,-0.13815024002730764,-0.14854083931111148,-0.15619586914505904,-0.1606541364210977,-0.16365501627728568,-0.16727744710422918,-0.17226528915624253,-0.1779885517555758,-0.1832596549647105,-0.18700097464177626,-0.1893864767416676,-0.19436573384507788,-0.21176532896275901,-0.2538020677228122,-0.32352416624500574,-0.40055536798561725,-0.43576343834745507,-0.36587212342227116,-0.14543183703257428,0.2226317762790529,0.6771540829177415,1.1158210158878066,1.4300831498777964,1.541431851029094,1.4264357200409057,1.123091797314222,0.7165891687738779,0.31045159962779584,-0.0076405367492835136,-0.19394795807989762,-0.25754210971380365,-0.24516202210678328,-0.21173019916657065,-0.1939358678843868,-0.20044832795341555,-0.22026703704493672,-0.23897810043004722,-0.24947518494537785,-0.25176436543513464,-0.24810150840783354,-0.2407979859635375,-0.23206505178059786,-0.2233184587945296,-0.21474534556113734,-0.20593778776475813,-0.196645170294162,-0.18652186735646722,-0.1746689825364139,-0.1606753158458868,-0.14597921609070721,-0.1331611256262176,-0.12416908180429743,-0.1193194095978571,-0.11700410062865121,-0.11442044972131712,-0.1091183017857709,-0.10015792219533864,-0.0885520416646988,-0.07647858870023644,-0.06544642576208645,-0.05541881808819949,-0.04536713728224301,-0.034099581638149495,-0.021054305635772937,-0.006544356061563832,0.008975371782697382,0.025327962260452433,0.042033115933420316,0.058278408955989576,0.07383246844482289,0.08920348849204854,0.10478615897323527,0.12020820517883822,0.13452667196445486,0.14719987944201224,0.15878861382506948,0.1704842329473334,0.18311442023259145,0.1963216569831788,0.20798155548500816,0.2146183737087254,0.21333980680483677,0.20375031488673961,0.18785146041939393,0.16817633094454365,0.1460096258141448,0.12106204563663589,0.09232974155020485,0.05909722390666805,0.022090577950861282,-0.015875467096701627,-0.05123770054586598,-0.0815905348163221,-0.10579907582735602,-0.1231868280515492,-0.1336595270825444,-0.13825129189095064,-0.13862647668680583,-0.1359635295255328,-0.1308536266646126,-0.12394382935723354,-0.11563512797294409,-0.10570098094050226,-0.09419994815901198,-0.08202669662305324,-0.0704128771702226,-0.060554845321668806,-0.05330144191859964,-0.04881803157559305,-0.046752632990597176,-0.04644535771337773,-0.04650621647204466,-0.04485299298307109,-0.03996565663252289,-0.031802679822276664,-0.02181509726989405,-0.012619957326749462,-0.006790718059132329,-0.005337051219991441,-0.0073959770786620645,-0.010794138534708595,-0.012715955977794237,-0.010775465255519999,-0.004374243512917892,0.004833295742385677,0.013953742175658377,0.02041499091748215,0.02305426799277424,0.022234873293512404,0.019299384473268004,0.01591984350664947,0.01340097275566083,0.012525844655184491,0.01401033007961907,0.01877404475911656,1
0.01661581280269029,0.01565506324271689,0.015972472563814934,0.016774160433959618,0.0179296882532582,0.01983467805120954,0.02145495610875222,0.019686258118627703,0.011994481221885098,-0.0001308275561335004,-0.010768431070547818,-0.013144536367881054,-0.00430943568747437,0.012833609054014159,0.031090846897491423,0.04255303963996115,0.042370811379569585,0.030864452805511092,0.012469055442329336,-0.007830201448430572,-0.02724736937964656,-0.04463684576872836,-0.0588903534842742,-0.06956468945525236,-0.07828952000914051,-0.08798773142849797,-0.10062012714543848,-0.11575176152435768,-0.1308413108255325,-0.14311071602863182,-0.15148174929098135,-0.15686611205695622,-0.16122089995564828,-0.1664178189671884,-0.17344409136069597,-0.18220478797221562,-0.19143680810831926,-0.1994238376555014,-0.2072426424948807,-0.22253102903777805,-0.2579463291062501,-0.3212358199980701,-0.4007075110097712,-0.45576682918333905,-0.42445867077634714,-0.25154582026240374,0.07734933370308109,0.5179366624690067,0.9767942659889404,1.3425672839094855,1.5240119208424987,1.4797856493450001,1.2299407816523282,0.8467265927586494,0.4298338116012166,0.07440693882256252,-0.15905151774438087,-0.26128282612987985,-0.2682284888185532,-0.23559576133364626,-0.20896500303804316,-0.20617287789685082,-0.22038266247642818,-0.23658694424540005,-0.24540588346590056,-0.24572798665387952,-0.24043249631726316,-0.23272023477285417,-0.22463466505849958,-0.21625838193280397,-0.20628179328509938,-0.19378141370290153,-0.17940659218819646,-0.16522922621101063,-0.1534511986863255,-0.1451328398600806,-0.13984695176122766,-0.13594170769362288,-0.1313476900021459,-0.12474558154961415,-0.1161538409294982,-0.10642075926747588,-0.09616865237328193,-0.08551200055461756,-0.07483352961157592,-0.06497767783058951,-0.05647170676708875,-0.04927668383166431,-0.04293388653091369,-0.036432902933314235,-0.02867654770154515,-0.019104296309892157,-0.007479197335199066,0.006025906052710247,0.02020311011453295,0.03324360562143075,0.04428469778232619,0.05429661203485,0.06524736688008202,0.07847459495484405,0.0939691146527886,0.11072866270886216,0.12730759994257776,0.1426224111307628,0.1564850485355984,0.16902889994485756,0.18002075654305913,0.18863172242391735,0.19328836725787252,0.19213976559229928,0.1841871265345801,0.16978786752292943,0.15007893784676316,0.126406389135576,0.10003692244748019,0.0717467832437107,0.04219787312204952,0.012894443060099368,-0.014003512939945575,-0.03676937428269289,-0.0548960115374626,-0.06903091823663972,-0.07998921209370274,-0.08796105139087552,-0.0930438419483336,-0.09620444685454924,-0.09891992629042018,-0.10187480162036441,-0.10435602653931975,-0.10496691082837843,-0.1030492903166183,-0.09898523162802332,-0.09314644070776211,-0.08564938745613336,-0.07711828521479852,-0.0688833256048575,-0.062385134322102416,-0.05830981996137643,-0.05609817455707108,-0.054277459803985594,-0.05114654266123596,-0.045445451756204465,-0.03704262804664714,-0.027418807836713563,-0.01908018389796197,-0.013608160522049958,-0.010481777807818185,-0.00792664869601136,-0.0041168481916929005,0.0022623781645361336,0.011736474520852119,0.02371228119791325,0.036123425398473734,0.04596669855919212,0.051039923225094014,0.05131626395045871,0.048488737651637505,0.04427636855416151,0.03971096829834991,0.03592617789624002,0.03432331364318264,0.03557348197661347,1
0.0014134683338101488,-0.000868314469172707,-0.0033386183706751353,-0.005142689439084802,-0.00547467131546003,-0.004555236784122003,-0.00419143604502333,-0.006385878446842324,-0.0111387927315971,-0.015708186333716245,-0.016194170339965744,-0.01013154257088849,0.0019791083977283835,0.01636367673984927,0.027039246848709647,0.029256916915532956,0.02265851356264382,0.01024114324272474,-0.005073103042135586,-0.022193910341122322,-0.0412344142900588,-0.061503727240173556,-0.08022815382320776,-0.09410593233927836,-0.10190392282670105,-0.10495691333428299,-0.10601419751284794,-0.10806151709305675,-0.11289011295640958,-0.12011002939399588,-0.12829491529678325,-0.13702445168635044,-0.14722629142590238,-0.15954370668982643,-0.1725162120207762,-0.1825311276726723,-0.18590508427253663,-0.1820413884266303,-0.17650992490413817,-0.18187639931540608,-0.21347723631499452,-0.27905709823127994,-0.3645983621134208,-0.42559286822197356,-0.3967140671558352,-0.2218894444189018,0.1119932845623373,0.5597765068731178,1.0287858424606104,1.407940264704094,1.6030869930127603,1.566629531874996,1.3118424211625765,0.9085122614199174,0.4615945216802669,0.0767665478613195,-0.17631362922871024,-0.28503385706204937,-0.2879643601253753,-0.24721829429807138,-0.21518007054517077,-0.2136836889020735,-0.23556562432833034,-0.2620364134997773,-0.27930840076410623,-0.28401000196467335,-0.2791785608858294,-0.2687923913922421,-0.2558142170621964,-0.24252053817086486,-0.23044126881564983,-0.21988087509726273,-0.2102167267502239,-0.20074520746719904,-0.19121491966122436,-0.1816706550879603,-0.1717660689706241,-0.16083831681223737,-0.14876929795603558,-0.13623538797804996,-0.12427524199376172,-0.11357292422045379,-0.10407651709785566,-0.09525740319284894,-0.08625857682354457,-0.07611018907285816,-0.06466258671447249,-0.05320322600725271,-0.0437272159900501,-0.037536493537823304,-0.033931558668700075,-0.030305705543900583,-0.024128419005858763,-0.014204119629941277,-0.00033881947163396167,0.01676309965072909,0.03551438630076448,0.05410165786548837,0.07119016125041812,0.0864066903648223,0.10028926753829226,0.11341062228265575,0.12586272275631824,0.13780838729664038,0.14982583132522426,0.1624040689124232,0.17525561137259216,0.1869501421025804,0.1952749457620505,0.19826420282015736,0.1948322774296683,0.18450101644271055,0.16733866697399444,0.14446984011811584,0.11792761407250438,0.08966275905647199,0.06103404683536974,0.03316729075495642,0.007012474802330835,-0.016810985751708994,-0.03775118997208768,-0.05549645218620468,-0.0703049597639468,-0.0826280647236265,-0.09257469629810999,-0.09962499568477454,-0.10277943528623762,-0.10137777832140513,-0.09582682905017402,-0.08752630808679894,-0.07847438365817958,-0.07075620401172543,-0.06575459861635663,-0.06361105637484148,-0.0633257012171064,-0.06317271719583609,-0.06111912575844255,-0.05564009352453665,-0.04686345190572113,-0.0367286911122124,-0.027771152977421894,-0.02176733968119967,-0.0191422404427006,-0.018886727578847202,-0.0188783840344149,-0.016908390803614518,-0.011713227252397637,-0.0034495024392571048,0.006354749679417883,0.015587773422587096,0.022176208117087946,0.02430213493351311,0.021417995469198377,0.015387883199480043,0.009819482275785744,0.00780210641659966,0.01026426369306335,0.015771041263214294,0.021470296037623487,0.0249841395805816,0.025758720437979055,0.024723704733966165,1
-0.006496448171969537,-0.010716780626324238,-0.012087890510224636,-0.009147533454847877,-0.0021726413133899215,0.006427114023999085,0.012756095118205144,0.012817476152191387,0.00496641750935819,-0.007820127439753428,-0.018296241189632086,-0.018949391265947576,-0.007479146924672942,0.011231193280345348,0.028639482775442836,0.0374575594587816,0.03429948756460017,0.020020332654333686,-0.0015776562218264628,-0.025592885764426927,-0.047552176734833924,-0.06441646509107299,-0.07473290754752204,-0.07874452557716065,-0.07921571472935614,-0.08106021055976553,-0.08859321412672444,-0.10299612582395559,-0.1223098157619664,-0.14295242509418304,-0.16116635209913474,-0.17407138009636305,-0.1802286240174219,-0.17972714524086272,-0.17398027561640392,-0.16574968415493282,-0.1594721009925663,-0.16087058227968035,-0.17643006699812241,-0.21333712562621387,-0.2765418538340614,-0.35963000506099363,-0.4335070314473804,-0.44525014974130184,-0.3367064449357373,-0.07586896985824462,0.3189898344720049,0.7773443962578203,1.1964218155915576,1.4735880239305856,1.5393883507596267,1.3801334283434028,1.042522210307771,0.6189344671210258,0.21709380392539154,-0.07721302627265146,-0.22870610061050767,-0.25815975766809696,-0.22313019032179132,-0.18403430436118537,-0.17431474525173513,-0.19276971153403263,-0.21901345754332888,-0.2348264410330194,-0.2345218267690972,-0.22220273274560504,-0.20426843370700468,-0.18528032922162752,-0.1690499273884784,-0.1602436756768878,-0.1624646208640501,-0.17501651291239823,-0.1923141867689601,-0.20634088482248195,-0.21056540335141716,-0.20356146018577823,-0.18941923506764707,-0.17433686282827027,-0.16264558569723542,-0.15466790503797104,-0.1472571146129637,-0.13689489194304405,-0.12295853976880457,-0.10815757478078168,-0.09563994801169978,-0.08616193889083025,-0.07840656424099982,-0.07075561372120345,-0.062057181953154905,-0.05163679434230198,-0.03888030150062589,-0.022917544671097637,-0.003751859231729257,0.016615292669449572,0.035473205336566824,0.05144196634811113,0.06489693306121146,0.07713283315201597,0.08917568985601308,0.10103353503580093,0.11212319116202453,0.12241850148711943,0.13299222650005824,0.14541104610166938,0.16045313252943952,0.17707301911064904,0.192544156516635,0.20383994988091086,0.20913292959573357,0.20813897029125167,0.2014042123355811,0.18930767004534413,0.17150835664649905,0.14733581105982194,0.11671838089050504,0.0811829204962069,0.04388098260102845,0.008085618803845819,-0.02375534476194107,-0.04969616019307893,-0.06865414464962631,-0.08125202530226858,-0.08944189012787225,-0.09536404589552064,-0.1006042551018635,-0.10571838605232953,-0.11000990066082457,-0.11196600705191814,-0.11004829074250269,-0.10347154967033856,-0.09266123852685665,-0.07920975754573902,-0.06574927970967814,-0.05530865423395095,-0.0495876577153156,-0.047713349183607985,-0.0471801113419904,-0.045840362147009414,-0.0427687897065222,-0.03806946378036494,-0.03239510912302103,-0.026048778927225475,-0.018644196008591577,-0.010246912871255325,-0.002298917318624945,0.003369447504177874,0.00614817217614106,0.007008641851092005,0.00771671073672024,0.009718074546631317,0.013066996425437955,0.016264348881349457,0.017625955542763076,0.016557380462446702,0.013534939220532413,0.009834171496835955,0.007040403923952165,0.005790347926331813,0.005114655892292163,0.0036294603660398323,0.0012986167229854587,-0.0005068948044906936,1
0.013641841151703844,0.012095795797673134,0.017925290115045893,0.030813411922548568,0.047338665970952175,0.06131797121445695,0.06530346135842918,0.05523788005951616,0.034615883961836,0.01346384420115892,0.002557476375977592,0.006020312828167112,0.017605574214777812,0.025214552631501134,0.02019767028124042,0.003564132041353472,-0.015348001158098229,-0.026376585211967712,-0.025397668823604024,-0.015355223363189088,-0.0031435352082241257,0.004353769060594884,0.0038637789427950443,-0.0028796575136762724,-0.011735831827943233,-0.020636740417432305,-0.032101485682650095,-0.0517958446025413,-0.08362795955598254,-0.12519095913586148,-0.16733921870972457,-0.1982762015648434,-0.2104452964675118,-0.2056180608823669,-0.1931291852955795,-0.1828264940093206,-0.1795109924544666,-0.1830425204077494,-0.19250738661194944,-0.20977296991085417,-0.2387175898064705,-0.27927665508288835,-0.3190511174624538,-0.3290345816563499,-0.2701374788364046,-0.11063892692458209,0.15423445684084822,0.491827931924996,0.8360498323325751,1.1050272144214537,1.2269026040054953,1.1643827822309598,0.9302868808008895,0.5879831371509858,0.23160582630721682,-0.048746268258886366,-0.20127520118415493,-0.23010095696388266,-0.18572939338126554,-0.13222135239343696,-0.11168211775657441,-0.12917498304638128,-0.16427280186027607,-0.19414495857258332,-0.20879443258209632,-0.21067407219769613,-0.20482847304072543,-0.19263693451526495,-0.17468644139502046,-0.15565031025058879,-0.1435863971378664,-0.14440434168088973,-0.1567567591325009,-0.1721208672424584,-0.18075959955967158,-0.17820165471630312,-0.16677214959808362,-0.1523019873254812,-0.1395141543274564,-0.12982511668775296,-0.12230369045162647,-0.11529676955185221,-0.10736535364078893,-0.09715604807811987,-0.08269719932377498,-0.0626801845538282,-0.039476184905418946,-0.019460550581151235,-0.008785758688409574,-0.008470644545812964,-0.013319087084971301,-0.015159742158285576,-0.008144590660792053,0.007640029469480815,0.027394396984576724,0.04594730963800585,0.06115122666396189,0.0745028323007807,0.08886388114200652,0.10550629848212457,0.12375583018518252,0.14256174749626488,0.1612757509835645,0.17899035083614012,0.19328508576043293,0.2003499628817934,0.19735169875358594,0.18507537812633262,0.16845075887295205,0.15354444337566345,0.14287619230958723,0.134036878580884,0.12255773563531461,0.10512512176044746,0.08077348302769301,0.05066064188245101,0.017794019350520964,-0.013399996104558665,-0.03865765264958666,-0.05557208031222035,-0.06395985943906243,-0.06548119154793572,-0.06330345787547402,-0.0614986494132843,-0.0636936600325003,-0.07138004266351484,-0.08292119344805915,-0.09399917701860895,-0.09973550671836078,-0.09770041839529503,-0.08938903132553609,-0.07847032081262696,-0.0679290649224372,-0.05892341137556135,-0.05128101247449966,-0.04468473937148774,-0.039501035599153064,-0.0363407244320643,-0.03529879728121435,-0.03576972487596592,-0.036382344826290235,-0.03564387082793507,-0.033319591810784054,-0.030370229525490927,-0.027393691360461776,-0.023812145359458817,-0.018760456927266012,-0.012582731165187374,-0.006590186895660717,-0.0012875413476427944,0.0040002266410859265,0.010013994317036076,0.017184072912466923,0.025692795743091197,0.03465822534971366,0.04159732017660235,0.04377432254649428,0.04046512908866039,0.0335014157934257,0.025667624075725336,0.019340299689676033,0.01637985760509345,1
0.00279738348044601,0.004854558047036743,0.0074285494564554945,0.010032028956784301,0.011820080711733625,0.01111097995174401,0.006433659532326448,-0.0013442829082311398,-0.008381403055276258,-0.009905987852723173,-0.002888350650668182,0.01237059519458498,0.031514418776381156,0.047070717485859934,0.05214504805977892,0.04435607374201402,0.026241912951970224,0.002577655286332447,-0.022461134580794562,-0.0463701077864763,-0.06723948608779286,-0.08290030468500774,-0.09242964702066772,-0.09778291603298922,-0.1026143427265048,-0.10942167686464657,-0.11831869688967761,-0.12822183282611063,-0.13833540746326697,-0.1484633028317584,-0.15857414777580095,-0.16840256981239513,-0.1775369276824079,-0.18574875939519447,-0.1927594240549388,-0.19800798894229973,-0.20157662181597358,-0.2060369904894155,-0.21835892602555612,-0.2492889079074679,-0.30666473369148933,-0.38334101742680543,-0.4468971968813398,-0.4419843137430015,-0.31131042287169386,-0.027589752994017176,0.382566492338442,0.8387230863804696,1.2319017081776966,1.4632453622396855,1.4788258424611957,1.2862563670436205,0.9485015196042422,0.5599871687517625,0.21405491844200394,-0.027344912777794356,-0.1494309790939487,-0.17958906366319735,-0.16574580125049793,-0.14966179363234214,-0.1499614349377668,-0.16331420008530267,-0.1778583437755784,-0.18551425234811456,-0.18525800565937595,-0.17969795731472304,-0.17187792327002593,-0.16486044573083275,-0.1616346797703333,-0.1640310766601288,-0.1716268191063684,-0.18151757469572524,-0.1895281427192888,-0.19233762016943656,-0.1890064907294487,-0.18117963509980156,-0.1718313217174965,-0.16334052011896144,-0.15627027188128892,-0.14937650656044424,-0.14094974193497212,-0.130517078033376,-0.11925899423031329,-0.10894914681007739,-0.10071181921835522,-0.09460449456806119,-0.0896152867741762,-0.08395071647853992,-0.07592471477949239,-0.0648289379363815,-0.050999088364045264,-0.035115962174357966,-0.017966207514334916,-0.0007686050161448792,0.01518175114646764,0.029187252246752508,0.04153654622279524,0.05335809717239057,0.06567095674440207,0.07894204482675629,0.09353734186893635,0.10979683136782675,0.1275830869527249,0.14580081982484838,0.1627028187406407,0.17694950267683293,0.18754242315074549,0.19291464015259455,0.19141033958318335,0.1826660767998836,0.16799317262830266,0.1494165914279097,0.1283322317455329,0.10501301383441061,0.07924280160761213,0.05140209219481079,0.02311697662771807,-0.0034077023159756817,-0.02676973929675449,-0.046468041762026235,-0.061923466270319735,-0.0724257259766747,-0.07803915421063462,-0.08009946851089031,-0.08065321124676031,-0.08133592147950952,-0.08266761796298533,-0.08392240225200122,-0.0834024253314362,-0.079555609841891,-0.07249212397215105,-0.06422413696215469,-0.05719952157879813,-0.05255500923706008,-0.04961471958158148,-0.04686585344913896,-0.043413265476214984,-0.03973923827154597,-0.03686471495238194,-0.034591185816173195,-0.031205107131459107,-0.02532671828230624,-0.017560756481874655,-0.009787004768654541,-0.0034404676443444207,0.000791089855058158,0.0023877158790006296,0.000864762458361857,-0.003900973191396753,-0.010943203069444582,-0.01768966259393468,-0.02083568952213159,-0.018309598907078665,-0.010973712314984868,-0.0029920274488150125,1.2420509421954239e-05,-0.005731572301968661,-0.01940094559174801,-0.03481356917059781,-0.042855774050027835,-0.036461030130225794,-0.014858863475415667,1
-0.007889565834576825,-0.009569200792426883,-0.010958023313442177,-0.010342354925668701,-0.00632354473044393,-7.242815212157101e-05,0.004420071006540129,0.003323415323782968,-0.003731772883245661,-0.013066506953370872,-0.018624601711280744,-0.015039636433100642,-0.0015831025735549252,0.016228621628137548,0.030047823136917746,0.034224683722603774,0.02823738618998268,0.015005399102179545,-0.002086352878350516,-0.02081838867280725,-0.0396094073295175,-0.05660367401987099,-0.0700197958133137,-0.07885293816840404,-0.08352249051163121,-0.08635734272232432,-0.09061766071741005,-0.0983147230714122,-0.10897267632263528,-0.12042691327771614,-0.13046348119054887,-0.1379161427412528,-0.14306064534652688,-0.14720989369813411,-0.15143865561723477,-0.15568034430949348,-0.15940427453854966,-0.16310625714951385,-0.1701968631839603,-0.18872178746760407,-0.22912092669828768,-0.295066021642875,-0.3709345280740828,-0.41552603448194414,-0.37229424388695304,-0.19650901343797517,0.11650413929326679,0.5209354712898955,0.9328275968279933,1.2573015136116754,1.4184157671738507,1.3809095978111718,1.1589269843768122,0.8115539977173358,0.4260339258852084,0.09090230040512437,-0.1337710287385617,-0.23544828301093118,-0.24582799683283196,-0.2172241737031888,-0.19348940989982588,-0.19237357134048777,-0.20758014332895391,-0.2240650655186472,-0.23195117986364933,-0.23052960172271786,-0.2242983729190825,-0.21751592936110453,-0.21179287455956133,-0.20656394581607118,-0.20032180885645945,-0.1917435182127014,-0.18051892174804046,-0.16771179518604015,-0.15533130278531035,-0.14491726853852896,-0.13654258101891859,-0.12941983570434287,-0.12280938606632998,-0.1159895778128125,-0.10808201420418125,-0.09865235492910801,-0.08832872099167396,-0.07841573289431455,-0.06990855372741217,-0.06288815736450129,-0.05683773307720286,-0.05134325660784554,-0.046168152603342894,-0.04075562704392463,-0.034088004384063696,-0.02544041009428217,-0.01527289787250485,-0.0048461427638185825,0.005313483499430029,0.015925431249403193,0.02776215991618036,0.04052118880670491,0.05284610546319303,0.06351731746015882,0.07271012891133428,0.08190481449626068,0.09281505272808158,0.10617315780151969,0.12097458086978705,0.13487558963697333,0.14545325165261577,0.1512327346852664,0.15178693516664354,0.14723116897581204,0.13791175620225202,0.1244603258135755,0.10757120908511346,0.0872169824420237,0.06260208005037413,0.0340090356533069,0.004730527657469114,-0.019614157943328374,-0.033980273472833736,-0.03689595003733649,-0.031913226642811564,-0.025750309297860593,-0.023933528728538142,-0.027977806357233515,-0.035797747635637256,-0.04388972046238741,-0.04973780434768532,-0.05296840547897149,-0.05458377689551611,-0.05529993264396195,-0.05478760704482143,-0.052535260551041615,-0.04887478512524635,-0.04483156847396789,-0.04146360701705886,-0.03928567536533756,-0.037700178085696874,-0.03526884981469144,-0.03101676768008441,-0.025116089328319338,-0.018264518502302617,-0.01122931536442435,-0.005460144511659798,-0.003277730082251133,-0.005993312314603705,-0.01182135713819643,-0.016879630863251012,-0.01802754022297386,-0.014093432144302098,-0.00575995722214288,0.00481755949944488,0.015383967374548214,0.024910169880529298,0.03301708137165248,0.03887263317391258,0.04147991881106737,0.04035947930668586,0.035972913533839766,0.030214293763197033,0.025621986313270107,0.02360714346035324,0.024113840097940323,1
0.017076082736018888,0.010233318138486448,0.003682604457134121,-0.002359385933272415,-0.006458994494993717,-0.0072669580276461055,-0.0055558375052896574,-0.004344682457234142,-0.006188238473623611,-0.010328299582912641,-0.012836650155202333,-0.009338491658358134,0.002363089208321594,0.02104345206880125,0.04193854660819298,0.057851979557624514,0.06151080938214814,0.04825297149476187,0.01840314573679685,-0.021735744568166432,-0.06197521264277381,-0.09286794154046518,-0.1097483930377009,-0.11352001507141836,-0.10894929241689574,-0.10244041147807537,-0.09946006095714784,-0.10252169729331106,-0.11106523488617905,-0.12271738344878567,-0.13488149612414682,-0.1456998535271655,-0.1540076136384677,-0.1588375034345859,-0.1594067328097098,-0.1561349946105699,-0.151728097961196,-0.15130917990241066,-0.16193471846103466,-0.19152897420355974,-0.24618458734265036,-0.3241217984717344,-0.40636355075964936,-0.4509759456894091,-0.4020796277782893,-0.21566454119361952,0.11217802424270451,0.5331455686432514,0.9573721928051111,1.2815086819909454,1.423243049014896,1.348581111675282,1.0825979919682742,0.7016234747758331,0.3081271153450714,-0.0046748072190188755,-0.18495207188457083,-0.237024723097881,-0.21000413357175748,-0.1653700859749155,-0.14388926049962053,-0.15238109664577898,-0.1740777656904985,-0.18951653222183482,-0.1911546811414535,-0.18363686225563014,-0.17512154212174239,-0.1702719830149505,-0.16916139822852486,-0.16971093469711399,-0.16978849582350303,-0.1675814867261309,-0.16197442137712423,-0.1535845218478044,-0.14463275925902097,-0.13733547545173075,-0.1325940165907573,-0.12937679131644053,-0.1250548956366256,-0.1175658396217232,-0.1072368151625676,-0.0960422151200549,-0.08616177863377007,-0.07926669525267546,-0.07572410519938697,-0.07437889151092578,-0.07355380776846579,-0.07196344832821344,-0.06869797906026792,-0.06287607123989278,-0.05382643721107004,-0.04147610444130671,-0.026545645958344796,-0.010397414154319516,0.006041595600027719,0.022801905835638587,0.03977839324855073,0.05631551644805788,0.07216975742478333,0.0878105412298561,0.1036402073314885,0.1193078987739451,0.13377527741702885,0.1461584059187459,0.15659624771387576,0.1660975895099142,0.1753141972502151,0.18350425461088235,0.18881128491965005,0.18922834477934455,0.18315681979585652,0.16971067786924937,0.1490366591686011,0.12221216483675694,0.09057664889638928,0.055506212162731106,0.019204476461899902,-0.015191630957496892,-0.04494831306329283,-0.06859448509650569,-0.08581336217530607,-0.09745095804627527,-0.1051565195090867,-0.1101844340001581,-0.1125755493395956,-0.11165423161163957,-0.10724391158000501,-0.1003532993436366,-0.09288846934960981,-0.0866158431545706,-0.08197925889495071,-0.07777679224302379,-0.07187521996072371,-0.06265492018714422,-0.05057239766397897,-0.03821550404498218,-0.028554221409308987,-0.02318626348920861,-0.02172916606592548,-0.02243311423785738,-0.023438840266313786,-0.02360000559768298,-0.022474840734020646,-0.019876806015686227,-0.01572305940818282,-0.010140386151079225,-0.0033148125059863313,0.004449259375957311,0.012336145981440921,0.018755009702235245,0.02186848154681823,0.021457306378660716,0.0199805378265246,0.020431712460478688,0.023459833637864778,0.027205862826691567,0.028956287253272796,0.026758715322304942,0.02064049995422359,0.012758349720672213,0.006276050814427143,0.0037354904321936543,1
0.0033302019327327574,0.01825871277133965,0.035112614207723054,0.04562596193854385,0.04446941562045664,0.03232991006353554,0.014469000154233354,-0.003184334428048731,-0.017033849481445977,-0.02567905023031738,-0.02771241760469847,-0.021337448897182164,-0.006566324021850043,0.013118125783567717,0.031562988641376334,0.04246497730958078,0.04177659419758611,0.029074725559510253,0.00797561935953392,-0.015212109541776063,-0.03450926661716061,-0.04683181163546097,-0.052968867931711905,-0.056908348499301,-0.06344712609600897,-0.07524327133974948,-0.0912947398215933,-0.10769521916265382,-0.11990707392474664,-0.12533238704676203,-0.1251667788158502,-0.1241263832921105,-0.12732123140171966,-0.1365732474663631,-0.14948154584522408,-0.16122740957416276,-0.16739657986901707,-0.16797618396561664,-0.17113872512265052,-0.1918044322496424,-0.2424628920365894,-0.31950996909785345,-0.3924751970926449,-0.40624266360950023,-0.30224047342085886,-0.050829869122255546,0.32453092524442384,0.747725787995475,1.1156839143892108,1.3354143667165281,1.3552919204140528,1.1797072848948702,0.8639366221498042,0.49337208078632555,0.15571896664470267,-0.08609425648855454,-0.21152127599117826,-0.24176427667660616,-0.2215094107425165,-0.19393503226747347,-0.18266567973143588,-0.18896320878255674,-0.20215141763584218,-0.21284782525411985,-0.21850013694403891,-0.22054749470134494,-0.22046493456724528,-0.21852032433607063,-0.21378090005026396,-0.20450009549560225,-0.18960847999743202,-0.17057455207510525,-0.15131597617644374,-0.13593046047638344,-0.12652055044171134,-0.12244196670199015,-0.120919934500777,-0.1189327393286935,-0.11528640285428561,-0.11095148897686974,-0.1072228765281861,-0.10372931594974302,-0.09845366251372041,-0.08930819377807322,-0.0757251863112813,-0.059341156530093885,-0.04339358980910054,-0.031304891894149034,-0.024702711349150867,-0.021978865199001402,-0.019352544092048167,-0.013289572612700574,-0.0021338116696435865,0.013145522389811645,0.02979571860981266,0.04540239056188271,0.058895485363628625,0.07031366208493783,0.08042742451202833,0.09011779371367516,0.10000002852256931,0.11082516483651136,0.12370030057280587,0.13914141543818015,0.1557500106622136,0.17021826112778987,0.178961043611074,0.17991398737606024,0.17331149473495694,0.16144826393347403,0.14729343218400126,0.13224981532591265,0.1152706386832895,0.09455996439369786,0.0695833936285784,0.04150976369024863,0.01299001715135844,-0.012391841827096822,-0.03176439723038468,-0.04472426534629387,-0.05340062397114985,-0.060949192951095764,-0.06974934859370903,-0.08021954696658742,-0.0907336629565991,-0.09858424499385098,-0.10160559374186132,-0.09958531937679221,-0.09443551018435387,-0.08880605259899974,-0.08412989725350256,-0.08004945969073929,-0.07556375460916244,-0.0701691584509875,-0.06384497609098529,-0.056780467007142385,-0.049733273153611444,-0.0437795198544942,-0.03898851406673617,-0.03381267389550496,-0.025789050295029144,-0.01278245412241736,0.005072204608303696,0.023418969835121595,0.03472320860014351,0.03330949843028662,0.019949676541547893,0.00151921139745184,-0.013099220047505808,-0.01740201080308605,-0.009993382633881978,0.005297755310320388,0.02177062146165423,0.033279329415900887,0.036816940558562175,0.032889215662787415,0.0242069175307478,0.01439561107427468,0.007252939635073559,0.005934973432650939,0.011761912161968995,0.022825129943132405,1
0.013454168376861144,0.03347284402983376,0.04746243257824479,0.05527122970931619,0.058516357043641685,0.058304066424205624,0.05426310284646082,0.045688215123629236,0.03307051590191123,0.01841746771453718,0.004733369368268891,-0.004495789965248232,-0.00615107228713677,0.0010802443036488562,0.015717101952511373,0.033414386680147824,0.047800726701923674,0.05290981580603317,0.04585475791336503,0.027429563146584183,0.001205997797412563,-0.027617219478667434,-0.053663546235571256,-0.0729919254374056,-0.08432684247538916,-0.08943511273518426,-0.09227098967976072,-0.09692128621677328,-0.10517048222960076,-0.11524030840125729,-0.12321389307939883,-0.12640646919646148,-0.12568679959203669,-0.12494429182788097,-0.12834645320402113,-0.13708301919986307,-0.14792571449550165,-0.15628372607127203,-0.16301159777523538,-0.17854221649985733,-0.21796266850537263,-0.2872898876461547,-0.3686533844306714,-0.415791509404904,-0.3682806704911016,-0.1811240080466829,0.14701579681475782,0.563778339100312,0.9767322865970579,1.2840992015669068,1.408198506581975,1.3190962655175,1.0432834619070221,0.6560351851132371,0.25818106239035454,-0.05764432711802277,-0.23945066459692915,-0.291069380424791,-0.26059324723223315,-0.20873657071709723,-0.17732708856741192,-0.17637799708823387,-0.19290572535442616,-0.20999667463630767,-0.21968054114681407,-0.22234667139033273,-0.22034178237648788,-0.21472423671050223,-0.20559558465996025,-0.1934257024691377,-0.17977482319695443,-0.1669209115198449,-0.15686484277178397,-0.15019587319571387,-0.1459198026507264,-0.14254657267671964,-0.13883951763772956,-0.13384953840194025,-0.12728046460396336,-0.11983023032301192,-0.11258026608794817,-0.10598551849187322,-0.09934041191912232,-0.0910654175381196,-0.08013610494551528,-0.06757596687226265,-0.05591247727984106,-0.047002105505867725,-0.04055326326730343,-0.0344469587087501,-0.02640467710647257,-0.01549977757488627,-0.0024587288927227294,0.011122449961358617,0.023997883958584817,0.03569469438820989,0.04627058273951459,0.05654922247955696,0.06800093056089206,0.0815801208228625,0.09701157274903893,0.11333157502630953,0.1295254794558438,0.1446351930240575,0.15792203423049797,0.168984583488249,0.17740406189610183,0.1824957006504457,0.18364651001680177,0.18045156015526104,0.17248828780750203,0.1596694115844056,0.1424367236138778,0.12119127730751103,0.09641567556191906,0.06917500013070685,0.040587807949508024,0.011654981314732138,-0.015672628031709598,-0.038619089938342635,-0.055494063800477916,-0.06672749201676587,-0.07413648120871896,-0.07961620894765417,-0.08431950759699737,-0.0886948351106362,-0.09246580966587785,-0.09438254353013883,-0.09307046177552021,-0.08860881671720597,-0.082798308610351,-0.07771711893858373,-0.07433238794671634,-0.07239485558875443,-0.07064801050468122,-0.06704368523787244,-0.0603550308348609,-0.05170676215256588,-0.04324032746731442,-0.03564026119489221,-0.027913209067907223,-0.019044332650795366,-0.009235962137696351,1.0759260515304583e-05,0.00688335155890854,0.010640887225569596,0.012273506955109236,0.013895953574102808,0.016935902994180733,0.02074048297590357,0.02338975039917472,0.02385362157553458,0.023150071329982567,0.023363497088372216,0.025493720919178436,0.02820476675120464,0.028785992857050177,0.02541230483017725,0.01854636196404623,0.01089036555544682,0.006200941894494508,0.0068674974518309504,1
-0.0007796637947777873,0.0016719095615643186,0.0011562244411788443,-0.00035401121785035017,-0.0006316705076529431,0.0010453052104998388,0.0027896614090132782,0.0012513487365928364,-0.005192757293621996,-0.013887447279475568,-0.018786685846008632,-0.014641441421834699,-0.001102073072076778,0.016863298093360995,0.032102729031898904,0.0389693450454396,0.035558752555399954,0.023690924495041378,0.006762746777723757,-0.012547918833893733,-0.03264871355262707,-0.05195170299087443,-0.06872582286242333,-0.08213175608770758,-0.09252099744507539,-0.10100998346898106,-0.10923084997571564,-0.1186550214155955,-0.12953888636293978,-0.14076579913650414,-0.15080396079086797,-0.15895733962818603,-0.16592551342549433,-0.17309781055608656,-0.1811681652498786,-0.1893003557324729,-0.196087888659401,-0.20250384740774083,-0.21516185562542303,-0.24637293013722716,-0.3067665780098974,-0.3908526664823469,-0.4648389054611519,-0.47004572303445785,-0.3469285842458603,-0.06793872908500198,0.3411871965804041,0.8036391390026546,1.2150419530232612,1.476984758161217,1.5271430279831797,1.3573345881477088,1.0165718061509919,0.5974944103072843,0.20621397183055754,-0.07533828898024608,-0.21675902204911834,-0.2424647181897006,-0.20967773499405046,-0.1739674094641578,-0.1638210487124442,-0.17766620211506462,-0.1989830718593069,-0.2143232610909584,-0.22086240421703202,-0.2222020826029269,-0.2217263397417582,-0.22042209093103024,-0.21762605801870202,-0.21175876199721902,-0.20143711020518243,-0.1869136846560661,-0.17055262149263928,-0.15597333530201268,-0.14603306752152423,-0.14109509666359807,-0.13894322613263851,-0.13587067770609654,-0.12888627338639436,-0.11813156900456483,-0.10661368108825435,-0.09732382644630239,-0.09115059004468562,-0.08705819462417208,-0.08330912346283861,-0.07848705748314062,-0.07197383835967287,-0.06361529783758063,-0.052927636232277545,-0.039492720114032355,-0.024334046982190983,-0.009779418960192198,0.0022683959954800798,0.011510694064915648,0.01921185807947149,0.027551917398541192,0.03859013073512289,0.05298888821702415,0.0696462853420773,0.08662763360695677,0.1021619241800528,0.11528442319197693,0.12635140551576346,0.13694427763649383,0.14869348232042012,0.16179114197617706,0.17475039770600526,0.1853680083938608,0.19170451261865273,0.19256784099742885,0.18710956052771682,0.17445501090055973,0.1547019704601123,0.12952726065968487,0.1010015388865733,0.0707574627451777,0.04057965307170586,0.012507090806224735,-0.012119589967534598,-0.03289122783595719,-0.049796141753009865,-0.06325882350025422,-0.07424051469455986,-0.08360257499932645,-0.09143656876164385,-0.09727680629198704,-0.10084238551330252,-0.10225243177831282,-0.10147361888914429,-0.09800616023380504,-0.09179609931780991,-0.08417599051566957,-0.07736213455831187,-0.07294365452958108,-0.0704993985644853,-0.06787253688107021,-0.06301024344493703,-0.05529489604694348,-0.045738677513493815,-0.03636354821723589,-0.028817030678940564,-0.023515434950058523,-0.020109003425346238,-0.018026654282238583,-0.016544171239352687,-0.014744023664788755,-0.01159905266680624,-0.0065944506058655886,-0.00034504926187937414,0.005681816487723328,0.01003601383849545,0.012169303711272348,0.012711372019702245,0.012725184303079727,0.012787046648522234,0.012724103399560704,0.011871467629175332,0.009864102093058625,0.007676386272008905,0.007307130345442688,0.009875320678942506,0.014583996795835788,1
0.004112238450956787,-0.0018071842771846746,-0.005678859956131213,-0.006022317727203824,-0.002823723072416954,0.001912736917213511,0.004864308796852492,0.003323478566307614,-0.0034329293065866917,-0.013453748716287649,-0.02220604692886957,-0.024595629593960902,-0.01806468540752844,-0.004586113003150838,0.010022247676304332,0.019403711766629195,0.020317185994289357,0.01384228662670111,0.003035742678066642,-0.010538703995591418,-0.027398191855124716,-0.04774206034985191,-0.0695080293663751,-0.08877351746554536,-0.10188079324119434,-0.10774991058059591,-0.10869392850633684,-0.10903779846292197,-0.112808523285262,-0.12201283272698932,-0.13580160782770972,-0.1511419427880385,-0.16456365042681984,-0.17337162277959062,-0.1765856353174229,-0.1753788857680184,-0.17252133655355895,-0.17248684195774625,-0.18246207652103397,-0.2120892105727017,-0.2686768272967055,-0.3461799822778919,-0.41429932630507643,-0.42000005865971896,-0.30740882045017004,-0.04782049748189002,0.3378144214555646,0.777871130204565,1.1716956580357223,1.423261092955467,1.472134072880271,1.3111803375316855,0.9878531790066776,0.5897710322570596,0.2161538365810098,-0.0569170723334315,-0.2011701326690058,-0.2379703064447854,-0.21830120358132446,-0.1930196242721557,-0.18962851550538307,-0.20770109618573696,-0.23159599889758128,-0.2471443418092769,-0.25002202356260883,-0.2437611852124661,-0.23358911772942187,-0.22257492405035217,-0.21151875686805402,-0.20074685563380393,-0.1915391671296524,-0.18510072198350036,-0.1802764566084557,-0.17381576062124038,-0.16336671777217715,-0.14961511617548645,-0.13551048604643534,-0.12391226418651285,-0.11607550100679441,-0.11152766864659698,-0.10839774710507957,-0.10410298069897134,-0.09669432188411657,-0.08604288433207859,-0.07366883533401727,-0.061600946988183865,-0.051564834612091,-0.04454823032499246,-0.04034578392936861,-0.037438853794646676,-0.03364306370091837,-0.027218384592300502,-0.017690561071844062,-0.005729304997846449,0.008071741135813378,0.023743737508340478,0.040696118001180254,0.057158538959913026,0.07149412132828872,0.08328800436751507,0.09318323496572808,0.10240236318011255,0.11249451312168002,0.12459803845853962,0.1385470673426923,0.15302204219948368,0.16634955589057443,0.17719972086763863,0.18462262891065992,0.18704214281282244,0.18193993083689902,0.16770657064434602,0.14563392847922713,0.11935484794961232,0.09225472778689821,0.06590413640631726,0.040762195195188936,0.017220631942109575,-0.004488446839546967,-0.024533897906812208,-0.04296854695655184,-0.05930519348959203,-0.07261332860664135,-0.08184609925960115,-0.08659752746871288,-0.08767474346722304,-0.08651812233241304,-0.08437193580584931,-0.082359811999803,-0.08134820403208808,-0.08093021154601551,-0.0793527902333957,-0.07520271885672375,-0.0688003016854845,-0.06152645369632278,-0.054385943375137656,-0.04774596169018832,-0.04190733838694169,-0.037243131205084,-0.03376817779544379,-0.03105427033398412,-0.02857209579958006,-0.02575793036874549,-0.022108658337561128,-0.01763154022907505,-0.01294052452189345,-0.008868702398583396,-0.0060321980849879255,-0.004463406945170684,-0.0037177022943017824,-0.0032616979226877986,-0.002396741637319044,-0.00017820790558342042,0.003923531310063521,0.00935283603605988,0.014717921930852331,0.018590992708549373,0.020234795243057414,0.019777513281734105,0.017862109017245567,0.015491645261758964,0.013691950815559507,1
0.023087843750078607,0.014970067982107827,-0.0018678110125448003,-0.02241409469217034,-0.03904055417435031,-0.045643165022960265,-0.0412165479371326,-0.030269779387251245,-0.01975462944442325,-0.014635221537886921,-0.0147699063932063,-0.015561359372088007,-0.012397560799569178,-0.0043046610019125305,0.006828180634710816,0.018879817443648937,0.029974840467823814,0.03724375674397541,0.036913292027256364,0.02633356284297449,0.005773437139727386,-0.02122062113351345,-0.04872125259776942,-0.07086299534899518,-0.08473665317777034,-0.0909716403172101,-0.09208564512817392,-0.0909642192048699,-0.0900345998086938,-0.09130772788762274,-0.09723322779147821,-0.10999800537256402,-0.12898537715949343,-0.1502324747358789,-0.16897135805541824,-0.18169634180894645,-0.18662490209904717,-0.18579424200446168,-0.18875606650513274,-0.21154670060936917,-0.26662777489331085,-0.34772830749033035,-0.4192580301955345,-0.42108010289522013,-0.2931051421776861,-0.009278031909763621,0.40030497749532934,0.8534968693614604,1.242654525433379,1.469587592422221,1.4762578908702912,1.2625682884591076,0.8870518561170722,0.4503166182274949,0.0631046327268466,-0.19303146688563164,-0.2948685690588302,-0.27951040880532874,-0.2171943696282982,-0.17094353919056976,-0.1679800810982402,-0.19877469008894194,-0.2376469534758806,-0.26497671507686865,-0.27590906217360855,-0.2751072846434278,-0.26787731606091014,-0.25637770753800837,-0.2410798751445092,-0.2232725399699452,-0.2055398530543684,-0.1901722337835607,-0.1777289522830141,-0.16724449245019987,-0.15748026369570126,-0.14791221207015914,-0.13889942368167302,-0.131236260306676,-0.1255273466991043,-0.12179523904633319,-0.11925197023967692,-0.11643417085178413,-0.11180946529236412,-0.10399928114998537,-0.09183734675280505,-0.07544493204708223,-0.05744326616463739,-0.04211156796821192,-0.032578064550162614,-0.028701083172410675,-0.02737274722742043,-0.024015317982670172,-0.014063115621870001,0.0047834674688533516,0.030177807828660932,0.05570306408800141,0.07520741397683207,0.08699464996274614,0.0941982966492268,0.10229638260709295,0.11605273225076003,0.13692212670400736,0.16210687267245624,0.18600302447969477,0.2035152285865614,0.21316220135991024,0.2172647465271176,0.21944628327613022,0.2220292018934892,0.22433187929491358,0.22247734153078827,0.21207857535758712,0.19207084707699912,0.16542190593737485,0.13612802786912095,0.10609909141584636,0.07443686514439499,0.03927082982097601,0.0010106393728687019,-0.03567310432521006,-0.0636393013124752,-0.0785076574285698,-0.08306895569798486,-0.08599368227214446,-0.095281117958479,-0.11233702885838504,-0.13142626525597528,-0.14384728653901138,-0.14349911097377605,-0.13082474820674012,-0.11269056512994478,-0.0981695985618193,-0.0933644719839338,-0.09835924708474028,-0.1072954251386982,-0.11138495681738643,-0.10357912251921096,-0.08251650417803082,-0.053844212579173,-0.02764882946180737,-0.012670387183906803,-0.011416805987388961,-0.019460807606048236,-0.028598865407145284,-0.03151350017998957,-0.02505936262495631,-0.010933821303114008,0.005860833001467903,0.019799418171972703,0.027398605689989218,0.028204053571570013,0.023793113493718362,0.016211408320318144,0.007583218503192646,0.00048552817496569367,-0.002339282668378172,0.0006784561088969557,0.008610873537748483,0.01820183276403637,0.02536912840580681,0.027173385820243097,0.023728519934438363,1
-0.011699328442531486,-0.008564584721518107,-0.009326655865238263,-0.010603110689107693,-0.008293985565674988,-0.00034299274922556014,0.011702598637764513,0.02270195228319344,0.02602397007472188,0.017800192055489467,0.0008351522210626773,-0.015498690488064204,-0.02039998422357022,-0.008819254941661032,0.014838631204877691,0.03944675723646637,0.053357048981468584,0.049683994346229936,0.028754184502968884,-0.0027702649089719833,-0.03563657099919209,-0.06224697637670199,-0.07869803197274286,-0.0847558590175655,-0.08321044888172642,-0.07869017180273243,-0.07617846939937378,-0.07981190878807523,-0.09160956651095373,-0.11025968051835958,-0.13101853713268635,-0.14746828910159568,-0.1548786109133257,-0.1533009010542376,-0.14803448812716713,-0.14676219587179107,-0.15485087559573713,-0.17201118145217323,-0.19378214371802546,-0.21804306114236605,-0.25072791457539856,-0.3023511277875147,-0.3732207064418459,-0.43674667519478166,-0.43684160190393706,-0.3095569265737882,-0.020768103992291297,0.4042748028296311,0.8796760318528112,1.2873887006437867,1.5203456738935002,1.5196968835224254,1.2925500100419336,0.9074651026511249,0.47068300010146213,0.0897718916273756,-0.1624107660909057,-0.2689413044988327,-0.26614821487625995,-0.2174622216307328,-0.1778531692753142,-0.16992419888598123,-0.18438183378282536,-0.2003336223075191,-0.206472885234379,-0.20629477984737818,-0.20825091157248082,-0.21478016065372807,-0.2206455928377424,-0.21901351427921578,-0.2073976429274443,-0.18897322430109184,-0.1700012131798304,-0.15624561721669816,-0.15029373033923973,-0.1504383605336386,-0.15224241435680885,-0.15185550217830912,-0.14807709748490103,-0.14215751055309736,-0.13606553664081678,-0.13066613348421943,-0.12516365273444977,-0.11801185042730374,-0.10853215616109016,-0.0973746524698751,-0.0853738685957131,-0.07306041709759475,-0.06149205047936331,-0.05197548703836606,-0.04419099024466509,-0.035729387712531514,-0.02406236380932906,-0.008545227606398514,0.009266872466250048,0.02632424892946722,0.03910543194107395,0.045906088512899054,0.0496395649302826,0.05723214386266583,0.07453630726026525,0.10131707548414018,0.13052538570677547,0.1526219698607227,0.16261367194346127,0.16387733687768988,0.16506353233711246,0.1731320827260445,0.18834986796568748,0.20456149161873108,0.21344293178659074,0.20943912317905874,0.19238083045826926,0.16639047341119215,0.13661757449850873,0.10627701072818399,0.0759272069132996,0.04502628832972064,0.013530132669835,-0.017403049035843856,-0.04531361320327499,-0.06748623328898544,-0.08249678195506496,-0.09095912722002264,-0.09550393393364714,-0.09953039537528449,-0.10486572291709167,-0.11050471577269028,-0.11342964094968333,-0.11076332987240978,-0.10178919230861587,-0.08828762842984739,-0.0735488373364894,-0.0613428829642929,-0.05464727766027596,-0.05391225579562586,-0.05651944907861078,-0.058362443418174995,-0.05603850687375091,-0.0483981049905008,-0.03729863233963787,-0.02709284899734741,-0.02236770389303749,-0.024864453139808743,-0.032094735686744175,-0.03888250693521402,-0.040110449546284885,-0.033005027975769166,-0.018247851217655507,0.0008241162203784062,0.020130958210578177,0.03666142002494231,0.049824160691714914,0.061211169437372065,0.07248369056796242,0.08318709946505881,0.09026765626481179,0.08957851999176955,0.07814860444751134,0.05644962553324278,0.029983075105170405,0.008084231904340008,1
