0.0015035159897264943,0.0018929380365592,-0.0007499519181870711,-0.006618522986883558,-0.014438629397828879,-0.021357381136626226,-0.023277663629136237,-0.015930393214652797,0.0022783563476837768,0.027402475328180603,0.05079425905825875,0.06366502482551634,0.061797582007829734,0.0479421833133991,0.030574524777733057,0.018897054357775753,0.01741348525262406,0.024224924179831506,0.03360427891640371,0.03998571429104828,0.04017881878015361,0.033434134283746114,0.021070182614412614,0.005810183120359459,-0.009602533740393094,-0.023375001976797136,-0.034594611246230686,-0.042636817281172586,-0.04671622682904587,-0.046112700780098485,-0.04058202429254287,-0.03066112156453743,-0.018453215487124926,-0.007600534204944288,-0.0009923310578634076,0.0016025685485991077,0.0034595071768016624,0.008575947327516225,0.017846593814546684,0.025516804001411708,0.02005909528023523,-0.009014462860860092,-0.06172496962395484,-0.11902336285784514,-0.1397241362581603,-0.07088622223594909,0.12480335156823671,0.4342047615828094,0.7748251649351532,1.0149648995835583,1.0326365022710275,0.7816897738769572,0.32286494431920715,-0.20211459238411764,-0.6387237264047498,-0.8881813054510297,-0.9370268635483961,-0.8382221927241063,-0.666446813590639,-0.4808361214482047,-0.3131473453426358,-0.1756824831239602,-0.07277835863913529,-0.0058034048661324625,0.0282561445920591,0.038865181796763244,0.039073634129603504,0.03888051563445086,0.04158635583622588,0.04542849235455714,0.04666809633060437,0.042046142757342295,0.0310670420336838,0.016921068240006415,0.004852890190592148,-0.0008139515066212175,0.000872803493161621,0.006836445812361931,0.011870265569985654,0.012030353384574338,0.0067136223664853445,-0.0019361142146583493,-0.011043438007121825,-0.018574188337550847,-0.023836191369004257,-0.02712635188683381,-0.02900657374276272,-0.02999626813586205,-0.030537224910276703,-0.03084438043526104,-0.031039268042517203,-0.03150208775990844,-0.0327640248268701,-0.03487160169626173,-0.037026678949443476,-0.037770825691524526,-0.0357482500252611,-0.0310129337038468,-0.025003893075370143,-0.018536723425189226,-0.01073730037381871,-0.00025795900714833345,0.013284704227055914,0.02915982368522188,0.04623600117367728,0.06346599773606551,0.0799906415499193,0.09552202274228902,0.11049945944629079,0.12531833225153033,0.13983980136666502,0.1541325309824995,0.16879643526487134,0.18386123484175637,0.19858517569090547,0.21283863949271406,0.22710891523157556,0.240782918356187,0.251375740948282,0.2555440415682602,0.2507155279086248,0.23586851945724935,0.21122554480116135,0.17784410860313693,0.13765303571228613,0.09358983035299004,0.048939102812875654,0.006261769058605059,-0.03277321314259042,-0.06723538905815377,-0.0969377670018122,-0.12216673082256849,-0.14383871635432977,-0.16349187313905228,-0.18164612211910203,-0.19649461685635236,-0.20519933013349215,-0.2058139023388148,-0.19784560919862548,-0.18264317938730237,-0.16408616013207644,-0.1476101315798692,-0.1368582915356883,-0.13098184528143025,-0.12582211112782274,-0.11755128274946418,-0.10492632262277458,-0.08941996539597526,-0.07418373079592774,-0.06212348368348175,-0.05413033811179963,-0.04874050359520334,-0.043664548251783356,-0.037823303508298475,-0.03178034351538686,-0.026848884433994958,-0.023964731594768102,-0.022410111331987535,-0.019284199011711908,-0.01100342785833321,0.0036396419154705734,0.021530354083145044,0
-0.009989437013772353,-0.0053943252399355325,-0.006213726514945468,-0.01183719580614353,-0.02135527296919745,-0.03278719977337789,-0.04147592176500632,-0.040778590435113976,-0.025920721787944738,0.0020337601040352556,0.035331402455828206,0.06250988122557483,0.0740238811482896,0.06789527276855392,0.0510412459817911,0.034466779065748,0.026516784572418964,0.028880624617562776,0.036707517256531666,0.042435921602076175,0.04092773200780528,0.0324385329814819,0.02145417511564819,0.012828453989553094,0.008820090306027806,0.008441513502653939,0.008630893814573042,0.006529560083226675,0.0012771628538081467,-0.005532621064330592,-0.010844323429253039,-0.012588013564570838,-0.011275644933746713,-0.008790934095520973,-0.006470623447616069,-0.004623721303270798,-0.0028260489389785727,-0.00013969235822047787,0.004258530358212111,0.009156699102170342,0.008908826331591848,-0.00616371547864223,-0.04417453790391603,-0.10178561122210404,-0.15389361006033236,-0.1521940523792969,-0.04325035636074543,0.1970084954481948,0.5318751705770203,0.8582157034070996,1.0401354443020496,0.9730795261467403,0.6427671656042556,0.1398298137939575,-0.38166596306809575,-0.7767509690527213,-0.9689588467889749,-0.9656124242144604,-0.8303003103231005,-0.6384585694552672,-0.44497067919529354,-0.2769716273070147,-0.14443638462917655,-0.05143560401203648,0.001931696355016277,0.022865532067232616,0.025394072933973444,0.02416306572392865,0.028109137664387336,0.03877602764128609,0.05304773931571831,0.06715739061436611,0.07853303107292325,0.08461870564826185,0.08187792506929166,0.0679506329545225,0.044840185909123226,0.019895027235855275,0.00375683713399624,0.00458759408462836,0.02126867717081185,0.04262285317141511,0.054485213235997185,0.048357659296950115,0.02550748097493294,-0.005157013431667318,-0.0329877590633348,-0.05053467391830088,-0.055290099708552615,-0.049462318286481,-0.038596359097644924,-0.02941373967735091,-0.027671137430693583,-0.03585850266576103,-0.051344660759070584,-0.06697527556575264,-0.07472041226563486,-0.07037257685792,-0.0554909114699204,-0.035192520995770214,-0.014748397408676254,0.0025614414759355057,0.016111817939495898,0.027297624797977305,0.03840499582981196,0.05152574472377813,0.06752495596425069,0.08585678782932402,0.10556488199535838,0.12622876362886074,0.14785065712453763,0.1700224931014151,0.19133794326555748,0.20989905055294544,0.22462927848075295,0.23595957063824918,0.24533214182516766,0.2543594112653673,0.26366627380464375,0.27099433757356856,0.2706719047154546,0.2567519178807116,0.22744286029919633,0.18639085677193473,0.140224339728762,0.09516810930813166,0.05466078493218764,0.01839669181904774,-0.01681664912356448,-0.05440705813595171,-0.09494092511879082,-0.13508664661637348,-0.16947182205284378,-0.19331689989136197,-0.20422506892620484,-0.20304056714334728,-0.19383768236019389,-0.18275892562127172,-0.1754201343916621,-0.17437757945917565,-0.17845175880429615,-0.18355426993129206,-0.18458984612135326,-0.1785771175490878,-0.16682536433871267,-0.15357183346515965,-0.1425483677998876,-0.1345133765638064,-0.12696296962366316,-0.11612419965802566,-0.1000756677703516,-0.08060964207967151,-0.06183154905787633,-0.04666405749392455,-0.03506490533308271,-0.025192693577892517,-0.0157019443049103,-0.0070153623137846136,-0.00027667362225749365,0.004522939754838945,0.008986643933394045,0.01536078300458267,0
-0.020839661061253047,-0.018000062019658515,-0.01816731644476309,-0.021405393291655434,-0.026799126437894585,-0.031512682961737835,-0.030941550042767267,-0.02094836911784751,-0.0006555579433143235,0.026127348664306906,0.05204386128388039,0.06933938445171735,0.07348719101164632,0.06588372867641462,0.05343490679548877,0.04418083468417284,0.042159901022929006,0.0457462970103872,0.05024577518360397,0.05192222624400889,0.05002942999041544,0.045658309967044605,0.039485650917933955,0.03125398765269759,0.020954502540965276,0.009743979743383608,-0.00044865784899947216,-0.00805709364058211,-0.012600814235390298,-0.014744016209862898,-0.015921223787312547,-0.017358485717905305,-0.01926913805367105,-0.021156962802117783,-0.02200616614691493,-0.01995778078613311,-0.01307112981339471,-0.000873852589776911,0.014367341990944133,0.026263032726561608,0.024089172093299912,-0.002941211343768704,-0.05661124843998494,-0.11992421752055119,-0.15281966211234324,-0.1012940950483816,0.07593635291736493,0.37275401487046017,0.7151049613973121,0.9759981615001276,1.0287951545090757,0.8129904481390637,0.3722564170833996,-0.1611048946056161,-0.6285416274353334,-0.917283091195387,-0.9987412928883799,-0.9170664957710613,-0.7468073482123293,-0.5521504103476306,-0.36996720432378266,-0.21610367746791517,-0.09761991173245442,-0.01766011344492712,0.026251594621909402,0.04325733762121258,0.04605633096395413,0.04563476012496709,0.04753745084876438,0.05195876115593122,0.05647963923210668,0.05853876655696702,0.05688814858812615,0.05218599165550614,0.046167261194017144,0.040352755998353265,0.035518214671843656,0.03159048340886007,0.02788866866505827,0.02363195020562228,0.018320361681289938,0.011910047289459819,0.004464922146367008,-0.004164338426216616,-0.01377883250716868,-0.023228939473197492,-0.03073237858853375,-0.035066743636314866,-0.036614942900623365,-0.03698114334397173,-0.03793648250002458,-0.040711942531149625,-0.04545073283543891,-0.05136281741213124,-0.057081758965189563,-0.060516946951786325,-0.05957438486285989,-0.053268717939249095,-0.04178487445888708,-0.02649582895654681,-0.010047417525892121,0.004951523138259389,0.01804447672162353,0.03122174596569086,0.046848410878209394,0.06592946943044713,0.08838365397115656,0.11386197670290102,0.14129742225365474,0.16832547912269508,0.19255606581443824,0.2130964931695899,0.23046808634480237,0.24599748307985192,0.2609990120643465,0.2754481324527426,0.2874839355344894,0.2943089367080746,0.2934347052381282,0.28336784240868107,0.26346873634088575,0.23353832548974254,0.194109926076769,0.14737939607129547,0.09724558994239785,0.047736196673991815,0.0017032729831455429,-0.038860603510578434,-0.07253194430953559,-0.09939277011266134,-0.12149653999316984,-0.14123721970733813,-0.15923268837547477,-0.17436113268948578,-0.185484663636537,-0.19228438604966444,-0.19472515799479345,-0.19293788437902945,-0.18782033296504966,-0.18102054471495133,-0.17393091570022065,-0.16674352556749006,-0.15897357164284082,-0.15059454314094411,-0.14180549399489453,-0.13232251490614064,-0.12176439870084359,-0.11017240696477508,-0.09770607685862728,-0.08434304506478506,-0.07019939807526568,-0.05615229548122605,-0.04385499697684035,-0.034676695464811114,-0.028576332694699457,-0.023953670022897906,-0.018703446559506405,-0.011872702251080454,-0.00443826831555846,0.001664664555742653,0.00527523647773533,0.006706126403893873,0
0.044376450857924736,0.03551588253476411,0.02636530515122267,0.016579475387103446,0.004851909024915783,-0.008906601251234497,-0.021736664776573298,-0.028589912490457687,-0.02580480436537902,-0.013833379507872732,0.0029329469344805625,0.018784512344379188,0.029969447090613235,0.03623254154318959,0.039501725396408054,0.04115808546658651,0.0408903659594536,0.03819385678654022,0.033758167590521644,0.02896767590214134,0.025010054434863056,0.022363250850552928,0.020289481618351098,0.017161215771768754,0.011988576376445625,0.00556159746603844,1.9651940839572352e-05,-0.0024309861544922094,-0.0006821067103606518,0.004427018463852493,0.010232875758003553,0.013586152473012278,0.012225915987559764,0.005793685816706303,-0.0034433768947245754,-0.010909826038520011,-0.011454003820775422,-0.0025590278508617406,0.011637345538321183,0.018488062451671162,0.0006290259186514022,-0.05457840865982885,-0.14312821517865562,-0.23417236630503843,-0.26920874861458205,-0.18092728224406973,0.06795887502330974,0.44609436601237945,0.843897277620061,1.1082401810861064,1.1118808142517853,0.8217388676314166,0.32186079363504205,-0.2260094211634487,-0.6597608370520878,-0.8856133447463626,-0.9021994429280309,-0.7756411354984185,-0.5902853821498018,-0.40891517047112413,-0.2609398115261208,-0.15186098305524912,-0.07690884758316688,-0.02902057325663402,-0.0007878040674787166,0.015399166471874087,0.02580408680032522,0.0336429165531359,0.03943113390865831,0.042713307793008824,0.04336460303844613,0.04177430196180375,0.03848135066014054,0.034116159566382545,0.02937756269624515,0.024579253055145845,0.019202526248321118,0.012022020191921497,0.002085295000267568,-0.009997861575536568,-0.021821836795839083,-0.030727796593597485,-0.035723483555058444,-0.03785611831242964,-0.03918809277198042,-0.04127418439131808,-0.043930917386746295,-0.0456132400105543,-0.045211511259663405,-0.04315593453524334,-0.040814793608302855,-0.03912614610526379,-0.03773355285024998,-0.03552308286146251,-0.03195828868864718,-0.027415287518752322,-0.022452489336916633,-0.017189002533142247,-0.011011802990501848,-0.002679280170563798,0.008843546488029298,0.023297161837066604,0.03890645093598648,0.05378032314304003,0.0677846625481181,0.08234777135524297,0.09869307609706715,0.11726694848505247,0.13801110044389966,0.15990623520973307,0.1809432113196868,0.1992502911249184,0.21384505470239737,0.2247090460351772,0.23270482780353027,0.23891125921425857,0.24367813142145833,0.246170022984313,0.24427834572916657,0.2348060625143914,0.2146357992095961,0.18274507724821104,0.14129888415453712,0.09467584521162584,0.04745484439555295,0.002948934970239764,-0.03709904885019831,-0.07179777813423459,-0.10061919825303786,-0.12372422394343634,-0.14161544805785176,-0.15432221668415264,-0.16184827095237778,-0.16488553549873436,-0.16453707643631793,-0.16184797769709122,-0.1574680733061482,-0.151714452759108,-0.14498775559501675,-0.13761003532790142,-0.12971118368961235,-0.12186073022069605,-0.11504096217669353,-0.10960216554361067,-0.10486588358658552,-0.09980040995845438,-0.09361510704028,-0.08580677196835472,-0.07644723412991418,-0.06672749315510859,-0.05849400186626619,-0.052848111118883226,-0.04940191736771024,-0.04672742551520821,-0.04308460185257309,-0.03691581854810842,-0.027391904095272566,-0.014923881103072505,-0.0008755794717527111,0.01339266047613704,0.02678645653299748,0.037998660043370436,0
0.006216382345529718,0.00562183410983527,0.002074574678591887,-0.003587155271614628,-0.009196930152596195,-0.012111415395077884,-0.010044064854421933,-0.0012412873484212027,0.014403762755308193,0.03368966876701632,0.050675558265418,0.059584777173077745,0.05794511572192271,0.048352009698240626,0.03737562301779781,0.031061787719926022,0.030417721418065233,0.03170272524865942,0.030520397594255712,0.025107992792625412,0.017297214734473303,0.010954607899444638,0.008152986251686025,0.006645464772610128,0.0016775767354965197,-0.009774100224957678,-0.025910275616713885,-0.04075409187213034,-0.04875987006132961,-0.048855514797691256,-0.04383273971830563,-0.03709105576742842,-0.030434767162434973,-0.023855664311205102,-0.016572567023683468,-0.008150717972129125,0.0012897356653841317,0.011261478491355996,0.0204260614430893,0.02525725232013001,0.01855816003748731,-0.009115755933318814,-0.062298400896547104,-0.1302905438369414,-0.17994849992516954,-0.158890106714589,-0.01608961083915655,0.262840749707368,0.6255181016498949,0.9540224710798958,1.108940371325788,0.9981245011382852,0.6289303984606951,0.10965337235102918,-0.40093330400714283,-0.7660785964937566,-0.9247642139819408,-0.8986484248610807,-0.7572218372065134,-0.5730299533536003,-0.3951122499197475,-0.24630813625090064,-0.13343803761309764,-0.056867188605766394,-0.013147903067059923,0.005954017733376782,0.011920869826646474,0.015044478822535956,0.02082543006594595,0.02945108416936914,0.037933444748971805,0.04318831421263376,0.04398258131455686,0.04063807977141826,0.03395016457627776,0.025124712627226035,0.016037135763682618,0.008567666464892437,0.003775921412607214,0.0018555872473368026,0.002223876440671839,0.0033749677725583085,0.003197646198046824,-7.014132366867272e-05,-0.006824618718029257,-0.015737961473497833,-0.024777861485756753,-0.032541934371754865,-0.03811805422535673,-0.04039287412667947,-0.03857501954958435,-0.033597816757347035,-0.028501649143075077,-0.026742705714317493,-0.029828358214724578,-0.0362702591531799,-0.042515238930910304,-0.045158843946510825,-0.04265362506845749,-0.03557455476159146,-0.026132889758412475,-0.016971310655729873,-0.009403095222571912,-0.002727452594076652,0.004807560533123529,0.01493852055633119,0.029128964475918003,0.04808046303917064,0.07121622683196871,0.0971404196369033,0.12399695390681158,0.14963052522848738,0.17245371627003855,0.19204986735341692,0.20891183856779988,0.22379638739465937,0.2371047026440468,0.24873215329831347,0.2583639104164782,0.2654899713371265,0.2685687037294906,0.26459766631864773,0.2505883042931176,0.22560219382679356,0.1913317400019572,0.15104422407641793,0.10776931109050866,0.06340757489909263,0.019257631285234236,-0.023339890424400787,-0.06265802753803112,-0.0966831891540753,-0.12395060680255757,-0.14452983104083872,-0.15999394826785848,-0.17185872770565055,-0.18031389993670727,-0.1848315952517587,-0.18520546786534514,-0.18177591252112327,-0.1755481819398817,-0.16810294636595616,-0.1608238623213119,-0.15432985175444533,-0.14857111369091575,-0.14301340026373974,-0.13684058309560462,-0.12937912727673867,-0.12012401981556814,-0.10847615571358958,-0.0943795194778719,-0.07912095853038403,-0.06495744660536897,-0.05390039080041247,-0.04634696730557221,-0.040836142154424576,-0.035564120456746104,-0.029774798629721315,-0.023343312370791427,-0.0157731380272377,-0.0064686086659276575,0.004259238283447826,0
0.001490402330750799,0.0006290087009580055,-0.002192173395154321,-0.007520822754740596,-0.015481295727727684,-0.024650101368633274,-0.03177928393547425,-0.03248991663417789,-0.02296193256805917,-0.0029004900683605806,0.02236157859283061,0.04359672944835241,0.05251740031114156,0.04681291658393115,0.03221576716098857,0.018979393342602503,0.014895635188403684,0.021092303019891727,0.033144916614036284,0.04482457097312753,0.05143440872854003,0.05115047021325319,0.04456422406386682,0.03345782710987887,0.01974379941310332,0.005366720292648109,-0.007366658807448745,-0.01611022338797438,-0.01935695440162527,-0.017201491893617946,-0.011584838704156192,-0.005578963281772762,-0.0018436367366670226,-0.0015039209972665633,-0.003874521589201275,-0.006490972177813306,-0.006071512730438756,-0.000902807674974887,0.007193330923842326,0.012742657840879306,0.007426075013460578,-0.017081119871128047,-0.06167757242549236,-0.1105539162375437,-0.1271970733503151,-0.06280979892214422,0.11924854563647916,0.4109986775891718,0.7406038442748781,0.986804662589291,1.0292631096370795,0.8115115425932767,0.37767822781518035,-0.14353013174646498,-0.5995071389573111,-0.8824475330497302,-0.9664150923800994,-0.8964264486926676,-0.7459858998144966,-0.5757751838560559,-0.4165736561767843,-0.2767444928119241,-0.15816120376547882,-0.06478938238885729,-0.0004071395529747848,0.03647177526081051,0.05254228111831736,0.055589131388123145,0.05159198983507226,0.04511941014681482,0.04073601461062609,0.042318358641698736,0.050653966144628144,0.06234084591163932,0.07155706801053077,0.07331531367480497,0.06609268188577451,0.05258709122544839,0.03778789290670356,0.02571621067311703,0.017472297970245635,0.011285435085647253,0.004273452821545133,-0.005116051532198244,-0.015988366772266827,-0.025866415394655656,-0.03242804905130317,-0.03512902098699446,-0.03611332375052992,-0.03917400292061145,-0.04684910039578285,-0.05820654819086867,-0.06912896944704662,-0.07471927661889749,-0.07225132996896345,-0.06274595356054477,-0.05027061248919925,-0.039521670024784794,-0.03321332213212425,-0.03099061611547143,-0.030072878730128,-0.026374240272227928,-0.01582253479716372,0.0034508149523819814,0.02944326674610099,0.05758646998621529,0.08385648512257696,0.10663066083028996,0.12682606199955831,0.1468706466367821,0.16868286816264091,0.192003783728935,0.2148752805979453,0.23563138534711428,0.25378178257927225,0.26949904134516467,0.28310499975486536,0.29429737766852015,0.3014130439700951,0.3020326095873466,0.29387036098742836,0.2748063189754818,0.24375660507536565,0.20230798575753509,0.15440016855392616,0.1042542399338032,0.054933015237957974,0.008191932434630386,-0.03532395187989689,-0.0757017582543291,-0.11273220486272591,-0.14535154535347566,-0.17212151100261563,-0.19201426475437672,-0.2050576828119522,-0.2118668171144361,-0.21266389276915879,-0.20754389892896172,-0.197414025070288,-0.18447100765326715,-0.17179023400457086,-0.16199061339126708,-0.15606547103767235,-0.1530054573373585,-0.15007865965708214,-0.1441869240759655,-0.1337922479552581,-0.11982153871311255,-0.10507565724054495,-0.0928368499429232,-0.08518100580203897,-0.08153629012533851,-0.07874821367552014,-0.07302547851724583,-0.06219338499091159,-0.04688277950347201,-0.030358617604520438,-0.016611688841785818,-0.00750310840579721,-0.0016877758691986877,0.0035150838164247425,0.009812251675744312,0
-0.0018081759242905607,-0.002425503795344114,-0.005815002699995612,-0.01157363396674495,-0.018506760984212223,-0.025046995695420543,-0.029523739830553997,-0.029502301625264644,-0.021705023526709312,-0.004655622110915585,0.018121652081056903,0.03865688161667993,0.04899473239369172,0.04599472713104402,0.03352632673577928,0.020699379744560955,0.01627780457018328,0.022727602540487276,0.034881444604842216,0.04421534873169412,0.04478528866453956,0.03649878454446655,0.024249445155977867,0.014075280587231464,0.009223050340426022,0.008722816854086116,0.008762151213779521,0.005364411022311513,-0.0034365621326468256,-0.016869494661326166,-0.031715654800707246,-0.04302590635825006,-0.045745257685860664,-0.03754127288966058,-0.020885220763894277,-0.0017945599583461414,0.013859530636744801,0.023067340974976036,0.025923785355121843,0.023540276552819973,0.014313706469291924,-0.007973870689582704,-0.049796533245903184,-0.10793529929855307,-0.15960275003227486,-0.16018005446390599,-0.057237101660102846,0.17812047571162584,0.5180838699014949,0.8669313275358366,1.0885680997932408,1.0682688752961171,0.7755348687944875,0.2865798214742809,-0.24926591526809036,-0.6790796378366294,-0.9118970562388852,-0.9442833347868925,-0.8371128799768415,-0.667694033501516,-0.49214208360054035,-0.33610556789234947,-0.20671785889683966,-0.10648085963189222,-0.03724792510368351,0.002877380715339349,0.021285798122092754,0.027933525311182726,0.030942225526074264,0.03444092675692104,0.03877133796855853,0.042061927163135254,0.0423728122608087,0.03909128622457785,0.033246528563791476,0.026967569902410643,0.022069053790731326,0.01896599556084119,0.016752847025223012,0.013717614406188346,0.008263076338838637,6.805047519984134e-05,-0.009669536925218526,-0.01909466845158881,-0.026555530903982244,-0.030954466006189126,-0.032363970484332844,-0.03243420610135416,-0.03341016702964009,-0.036619319355605154,-0.04193035211583153,-0.04804131466692282,-0.052895999538503075,-0.05484606135336351,-0.05403539899431945,-0.05201268416685487,-0.05021484203271358,-0.04895986259455203,-0.04714962838329725,-0.042923899342349754,-0.03473661362941778,-0.022095538564627235,-0.006101942510503534,0.011109224047303735,0.02828212053447722,0.04614938234982777,0.0665686943773064,0.09053046854518862,0.11682647170496377,0.14283167296556804,0.16598206676453364,0.18456895827567227,0.19870732506739583,0.2106749032242705,0.22351680304259317,0.23928586556686235,0.2579159771523747,0.2771094829924373,0.2934374025471652,0.3030754950262754,0.30189550252089703,0.2865615347584407,0.256076518037727,0.2123964139146641,0.15999239319171443,0.10460070288239431,0.0517051167385934,0.005016916668167677,-0.034351897403345176,-0.06719870688366272,-0.09521761515754014,-0.12059091366717996,-0.14489786041156946,-0.16757913522032858,-0.18625844433166863,-0.19855866457247784,-0.20329514987426087,-0.20069045317112952,-0.1924384650904192,-0.18178553293060412,-0.17231284417029538,-0.16556189957038261,-0.15996737605177602,-0.15239329903196244,-0.1411532810258493,-0.12774146582328855,-0.11559700713565403,-0.10743521237371279,-0.10310017686298291,-0.09895463123609832,-0.09031738643572937,-0.07564824556044872,-0.05781185839160739,-0.04150054057478828,-0.030120123312003495,-0.023993668613909013,-0.02031701806779002,-0.015390128790010598,-0.007651134208238888,0.0014471926867020458,0.009185055982492394,0.013830050443461746,0
-0.007246873204083303,-0.006217028152338836,-0.0099592946781744,-0.017198579176106194,-0.02512343355691321,-0.030295849630773326,-0.029593030471258122,-0.021247165638153466,-0.005922239469589008,0.013016308544768424,0.03044276270309588,0.041577381318589,0.044256561780005296,0.04010686696819893,0.03382155109783778,0.030170251519106406,0.030979382744838326,0.03474589376199381,0.03831033466355378,0.039134524394497036,0.036765927461161654,0.031957025019161915,0.02471248002712159,0.014326596854361152,0.0013657806264123031,-0.011567887727561552,-0.021608918873428522,-0.02762300288733394,-0.03030060392865349,-0.031120247760792846,-0.031239752563009707,-0.030640575691583953,-0.028623272125739008,-0.025113269863703203,-0.020900289440463737,-0.01666598921556416,-0.011629740279359457,-0.0037888133131181267,0.007189195789574205,0.016954995566065462,0.01575106735994519,-0.008530168200623292,-0.06185012382363635,-0.13228236384836903,-0.18208000307751893,-0.15326678555959714,0.00639695977370584,0.30529928302053394,0.6813459828999014,1.0087781547843464,1.145376744078632,1.0027952991356146,0.5986228118820418,0.053813422611670075,-0.4643280085858741,-0.8189581831445186,-0.955987383675806,-0.9061832092224242,-0.7462787114895517,-0.5520988419999864,-0.37237449566738123,-0.22809756279441717,-0.12355670846830023,-0.055646365889703814,-0.017669119142113002,-0.0002991525632124112,0.006601851162950943,0.010960300833658183,0.016573594425042318,0.023502929555260295,0.030119984564549854,0.03489316805828906,0.036587016672025414,0.03426447241052429,0.028210018972534345,0.020283240236263513,0.012874042133120288,0.007689066731284423,0.0054130434047884885,0.005878906015527943,0.007969024459382277,0.009707074736473396,0.009353834187229786,0.0065391349820727515,0.002016726616459191,-0.0035074076691386704,-0.009782106872939258,-0.01628366472112702,-0.022079517621543924,-0.026747311505919892,-0.03072793234459565,-0.03483442713420423,-0.03970509025218158,-0.04542016793282057,-0.05160647239509103,-0.05769721598623991,-0.06256571045022703,-0.06432304069593435,-0.061311915715271205,-0.053164619675416636,-0.040846311105164866,-0.02618650256213377,-0.01077268156103233,0.00508870362123712,0.021783059640640617,0.039427087997021534,0.058081924428384814,0.0782214437548675,0.10033068279043411,0.12384798795218674,0.14691838118114856,0.1677007222569372,0.18576730699433933,0.20199623956777535,0.2172876978117056,0.23164625590230412,0.24470056609917093,0.2565032811178617,0.2667209689945672,0.27353329374144947,0.2740259579730401,0.2650203656870868,0.24411243280973563,0.2114172738932675,0.16986724821852683,0.12294286634811619,0.07313338984652035,0.023170287010558357,-0.023080381532804096,-0.06216100937658759,-0.0925754269286599,-0.11478436374387851,-0.13070744718555038,-0.14312812380886744,-0.1545962730391042,-0.16609971658096762,-0.17644390986512343,-0.18303846729820167,-0.18375335846382754,-0.1785622612268401,-0.16967054208312146,-0.160115423989282,-0.15191248205348806,-0.14496730986387782,-0.13777629502296743,-0.12933229574923957,-0.1200473279813453,-0.1108284463177864,-0.10175673847284492,-0.09194909541793006,-0.08065190364094865,-0.06826397287218744,-0.05636058093043274,-0.04705824298328775,-0.04185575964777591,-0.040286016915555944,-0.03997398236312925,-0.0382880021984916,-0.03353075249067585,-0.02510016435257854,-0.013729344975237132,-0.0014808789430656027,0
-0.024665673722693186,-0.022914378868886726,-0.023322004770741606,-0.027673072129639063,-0.035757590852522,-0.04471729726455389,-0.04916927457490421,-0.04317385438165391,-0.023640020830758505,0.006987748752153924,0.04024780071985923,0.06445151172662307,0.07097745016722207,0.06001944683937405,0.04027865855704858,0.023143121783182563,0.016289958995542475,0.020349953591180407,0.02984572340557558,0.037296308816105225,0.03778655732476752,0.031048761370819092,0.020255200416875015,0.009377539600865157,0.0009363166773949192,-0.004806821979538411,-0.008922249758331509,-0.012142914851192083,-0.01411785660164601,-0.014241926944964602,-0.012658870031838316,-0.010269029286917954,-0.008530392409251028,-0.009314959623337657,-0.013551971614025826,-0.01912846075090067,-0.020979702634799053,-0.014266951346683276,0.0016876588952341913,0.020742562506041284,0.030473267536132685,0.017413483804803044,-0.02506977269166239,-0.0890842089048499,-0.14594209658707905,-0.14640202406304526,-0.036484157527775896,0.2100186774110131,0.5581047095357171,0.9032576643694007,1.1051000621415694,1.0528364171285538,0.7266946679088101,0.21560751198840317,-0.32320342764258403,-0.7386334284955673,-0.9494726274282532,-0.9630997899052313,-0.8462014098738293,-0.675354772325484,-0.5020838171439125,-0.3476013591631558,-0.2170417453385202,-0.11308254187009992,-0.03874714413946741,0.006210964179476336,0.02777911536764075,0.03610464796562642,0.04077909098817266,0.04674506064062711,0.053807493125449184,0.059217683693027066,0.06072169201575884,0.05764454270073893,0.050578310729079444,0.041254819898858555,0.031819754898491814,0.023558227202514898,0.016611153020493593,0.010461871266640386,0.004466804893122952,-0.0017502160415449643,-0.008366637466145237,-0.015619869527673861,-0.023582439871050728,-0.03175687951959889,-0.039281788385989294,-0.04524430909743939,-0.04908814095319998,-0.05160008760808071,-0.054644212682469634,-0.059055591380849884,-0.06351829936848732,-0.06578429547461548,-0.06438146782641008,-0.059455962192673996,-0.052634426299112774,-0.04573465822167663,-0.03956517330294514,-0.033626608213990494,-0.02612392114701172,-0.015041756312637461,6.846841358102568e-05,0.01794464147864726,0.03711064619309149,0.05689971668840257,0.07731533568103767,0.09856229760946036,0.12083584813580046,0.14430786589511532,0.1690283191017383,0.1945888506291624,0.21986799230319104,0.24333208890296215,0.2638848716031849,0.281792253691338,0.29836657284712315,0.31376225268035157,0.3252275816847209,0.32803076018938526,0.3179239267882264,0.29299425201789164,0.2541959999658659,0.2050533606075908,0.1507498038560144,0.09628211169453271,0.04473771753627154,-0.0025527518188106155,-0.04479848277623085,-0.08164462755661313,-0.11364236134991136,-0.1413578052931794,-0.16434370459569575,-0.18185823840680515,-0.19380769098125158,-0.20063521044635796,-0.20307544295102944,-0.20194020265139467,-0.19756939986541994,-0.18987387035105532,-0.17949085907916823,-0.16845195301127514,-0.15912460138014428,-0.15240492538653855,-0.14694579188198179,-0.14041882104548284,-0.13162176527857877,-0.12084591546435576,-0.10860561528038244,-0.0952963589740254,-0.08184905044128807,-0.06945212938003018,-0.05865202616207555,-0.04945618645361026,-0.0419107884584561,-0.035946385270815194,-0.031097071990325364,-0.026517030811148406,-0.021004869563464576,-0.013378542699424702,-0.003220884232864884,0.008447475615516228,0
-0.012556321669671367,-0.012497529666076718,-0.013883316254510485,-0.017493063934607034,-0.022662457089036758,-0.027538943258123737,-0.028949364211719824,-0.023091435638286837,-0.007998192974938357,0.01381131631317206,0.03533505813538755,0.04890169688090466,0.050888643277037564,0.04349066955447575,0.03297031838421293,0.02580030904440582,0.024831930813190226,0.028276600214495264,0.03199511148128359,0.03289517080860739,0.03083204060181867,0.0273979381529453,0.02324958409422019,0.017477607354539196,0.009153061757107478,-0.0012669991976359558,-0.011757159249181592,-0.01970769256760075,-0.02325667662804471,-0.022224257919621564,-0.018134122762130403,-0.013086032480043485,-0.0087958357652796,-0.00646825697765487,-0.00630143307269681,-0.006718213011132298,-0.004927856114625893,0.0012146440950262048,0.011599586004785185,0.02226640318567081,0.02377282062387762,0.003481323421697314,-0.0457182903241769,-0.11389282331691804,-0.16668481278910102,-0.15035657542201683,-0.014098812898922421,0.256404715786049,0.6113295739644877,0.9368812797667381,1.0957594878852062,0.9936984385899866,0.6329300153873242,0.11682914426330115,-0.398162243925102,-0.7741119539578013,-0.9460744683666669,-0.9320907128242794,-0.8005902453264764,-0.6238402296772599,-0.44891685079781685,-0.29620678019985636,-0.17224018351508932,-0.07978719904296108,-0.019830640875568947,0.010948863900411027,0.02158890611653145,0.02390891713225706,0.027213151233585697,0.034832071569493875,0.04472849064134787,0.05303718136683155,0.0568404207143368,0.054922981578156026,0.04805915187105226,0.03855590576229938,0.02885382010048515,0.020589349621015583,0.014244485603564162,0.0091588512651945,0.004182713831465946,-0.0016279314155208079,-0.008610702400763157,-0.01621828397559855,-0.023578407917735803,-0.030584120956915435,-0.03758730517257297,-0.04416004626084897,-0.049243757450453965,-0.05212935147780024,-0.05278254901942917,-0.052266899901502045,-0.052756949889003195,-0.055761345540948595,-0.06047154881216892,-0.06409821654796148,-0.06353976338517385,-0.05747247201348937,-0.046956682288591706,-0.03394769039430345,-0.02014728409614284,-0.006720064147552764,0.006206843336817609,0.019657326872579966,0.035167796774180415,0.05401814489208263,0.07674814782330666,0.10295513046008482,0.13125474111538843,0.1596519947229355,0.18619627356256185,0.20945531231298,0.22898659141770858,0.24561670757498516,0.2609088547746093,0.27604842790333617,0.29082710620961666,0.30340421230462794,0.31090593169044606,0.31012272727262635,0.2981622006057635,0.27353247366180866,0.23709298562481446,0.191642544834412,0.14065247929034175,0.08746547513216588,0.03512103851083012,-0.013538330761075697,-0.05615715921505201,-0.09144200518839742,-0.11927986521134268,-0.14098549745664093,-0.159155261547548,-0.17568158663118572,-0.19007244361084477,-0.20054751147695374,-0.2060313501743284,-0.20675607919254282,-0.20367220416585718,-0.19757939481675962,-0.18902621954177565,-0.17886944225949533,-0.16800339683881535,-0.15675718110084605,-0.14528930117756056,-0.13403096345376975,-0.12345280915018321,-0.11377772818175336,-0.10472973864390807,-0.09526017406958077,-0.08405753372954414,-0.0710068739299062,-0.05754867157217727,-0.04519838930383905,-0.03460155905782307,-0.025709421428320223,-0.01776051640100557,-0.009671515600929128,-0.0011358434626580656,0.007104049577891004,0.014154487827887106,0.019736543810651194,0
-0.013651186675756908,-0.013485227785850347,-0.013823913014104025,-0.016015562373901043,-0.02078261416406965,-0.027095851609541977,-0.03175194854153506,-0.0303261319635872,-0.019681164650269072,-0.0009338205963458556,0.01989463374315456,0.035150342803185436,0.040351429223407086,0.036539051028649544,0.028831479769820013,0.022638917053708685,0.020490987357143473,0.021745239568803063,0.024334680516859105,0.026588927254599378,0.027940284921099706,0.027942452974081614,0.02518433502537641,0.018115150107182898,0.006630540687108643,-0.007371939579664172,-0.02040761689808843,-0.0289284295159022,-0.03143011777382507,-0.029013547858135084,-0.024223249015166166,-0.019709762537767496,-0.017055696259363224,-0.01625692481771724,-0.016369546389337027,-0.01606713914515983,-0.013516229575297842,-0.006936632858969682,0.0032373346915078897,0.011626712588227995,0.007475998003463986,-0.02108605183836453,-0.07820639026677591,-0.1493580590970842,-0.19490419046269447,-0.1579787497491083,0.009019132505917942,0.30900433750896644,0.6769923998114349,0.9891404898900896,1.1102130773062884,0.9607436508252855,0.5636541097898968,0.03816737953172008,-0.45599736431776167,-0.7905571919724832,-0.9165948374062931,-0.8657900733824551,-0.7131241180589349,-0.5311979925124526,-0.3638372536912752,-0.226438670780785,-0.12066700930260042,-0.04600961737402756,-0.001067443510775399,0.01958421264857526,0.025225474560384854,0.025208579955202932,0.025694777602932234,0.02880634054605751,0.033552790652257476,0.037526789773147426,0.03862154912187054,0.03633283293923539,0.03166231233854405,0.02561290680162695,0.01845284567333519,0.010515481612703607,0.002697839469016198,-0.003902740522497613,-0.008177923998914968,-0.009567808378874342,-0.009126448433523029,-0.009195283027747001,-0.011770407702592953,-0.017569266710654906,-0.02602178697657266,-0.035434979460896715,-0.04352591981292622,-0.04844035948200362,-0.04977423619104639,-0.04890082759533562,-0.04780308351940879,-0.04743529586767777,-0.04770331156316515,-0.04843067695729863,-0.04924097047369123,-0.048717987634172205,-0.04489934639274543,-0.03678709405394953,-0.024753603217167765,-0.009958045702960532,0.006214295759466308,0.023035512446820193,0.04095489588775264,0.06036859946278766,0.0803871718358971,0.09995483745950846,0.11949740854601953,0.14042041517040277,0.16337581160323017,0.18752562725156913,0.21107186098694014,0.23230052235893844,0.2503749127208033,0.26525081283989843,0.27715873141202213,0.28576310053132037,0.28900840969017233,0.2834989889420319,0.26680708486260196,0.23903347046925025,0.20224212350158005,0.1592289132689471,0.11259962193112794,0.06405364152303034,0.014893850720303255,-0.032652733191242546,-0.07554185738893868,-0.11101246164692302,-0.13745322172550445,-0.15516185526565182,-0.16634191248468252,-0.1739240351472005,-0.18004190693028274,-0.18520009597662712,-0.18868742425889792,-0.18951962974972536,-0.1870877925894309,-0.18148874705383083,-0.17323918406950395,-0.16262186605796178,-0.14965695105851656,-0.1348402765685672,-0.11982284554679523,-0.1069772381590183,-0.09767205798880857,-0.09089383519245,-0.08411192718425996,-0.07557114761881566,-0.06551782229474294,-0.055331686537087935,-0.045668348604623474,-0.03600735455422507,-0.026041948718554368,-0.016613632396839505,-0.009092376979884787,-0.004024825068522749,-0.0003385716959018181,0.0038958831768113288,0.009794316993504453,0.016882600007068434,0
-0.012293741939496394,-0.014329472162673237,-0.017302153788525072,-0.021643072965072868,-0.027492882174547647,-0.03367894774652605,-0.03710530139298369,-0.03420381818924523,-0.023346958244172055,-0.006296055800599191,0.012302588546580891,0.027183256853170606,0.03500452869109711,0.0358974513124865,0.03322305615839704,0.031072266667864085,0.03136013778404769,0.03315593766747303,0.03436837136280463,0.033862311434016024,0.031998834095847445,0.029348433021270715,0.02549497280718905,0.019387286618262313,0.010504851488977224,-0.00027758780387334694,-0.010755092098700104,-0.018751298968275536,-0.02330254562424985,-0.024354400387855787,-0.02243508408917633,-0.018774750522499148,-0.014836951903673224,-0.01179442968544398,-0.010152127052519222,-0.009008658358490452,-0.006002074731810379,0.0009726146834505857,0.01083287195317492,0.017050367834766926,0.008445678519671129,-0.026114308812813576,-0.08901558043504418,-0.1626808999911068,-0.203690094123005,-0.15295466670804986,0.034641055708721835,0.3527473152701759,0.7228323605337034,1.0117128422420474,1.087489270562988,0.8867051080247988,0.45256114303248834,-0.08102455513521076,-0.5520295603709308,-0.84336298583253,-0.9241504614181706,-0.8403098167045769,-0.6707623860587877,-0.48405878661229296,-0.31894902826067434,-0.18845064003273337,-0.09312685624419827,-0.03021530456337151,0.00487887078321916,0.019472321106558138,0.02255922239323343,0.022461247344778612,0.024591589042172075,0.03024521431398692,0.03747232025794696,0.04346365823855536,0.0464562684898924,0.046148263935790815,0.043117707375387115,0.037969217068213865,0.03079152845807432,0.02162465742175931,0.011307381117193222,0.001201941838962703,-0.007687129232912378,-0.014832754112215116,-0.020007215010803405,-0.023324321621980913,-0.025258285871913484,-0.026881111724604927,-0.029696195848066056,-0.03441742484939859,-0.04008723196880593,-0.04483698304073075,-0.047415987047235056,-0.04771503449357892,-0.04618047890386791,-0.043435122728418624,-0.040238590969440956,-0.03722640145891037,-0.03440938418857348,-0.030903702214946226,-0.025636619827039398,-0.01808821643555183,-0.007891225959815196,0.005428317795707592,0.02170589343587364,0.03954083179683278,0.05687035644790713,0.07240233902486203,0.08668119792732297,0.10170948657524223,0.11918926689872157,0.13915629245470912,0.16030908424236992,0.18108145061640532,0.20035155208797126,0.217541421056206,0.23232089317078022,0.24417334497909787,0.25181166489934476,0.2534345701989316,0.2481055071368287,0.23603115423573826,0.21739478234364595,0.19224257168142933,0.1611855670302735,0.12493224743980799,0.08417511095540409,0.04078092807265968,-0.002321687396596897,-0.042537898452562894,-0.07799160022084847,-0.1072874203853916,-0.129581537840662,-0.14472590335880148,-0.15379111520099759,-0.15917820942207445,-0.16297935378778988,-0.16564989642071482,-0.16670070437290935,-0.16540997022706405,-0.1611320628430303,-0.15415724133024128,-0.14574786070380635,-0.13689094525624648,-0.1277296678045543,-0.11827372797985437,-0.10885883458612837,-0.09985394170637438,-0.09146218842270029,-0.08376996615727096,-0.07666599415207519,-0.06959376916699955,-0.06162304064111749,-0.052188089332095774,-0.04166078644871545,-0.031013181462374206,-0.021357190582751755,-0.013786829810110163,-0.008838014656381891,-0.005869020815372741,-0.0031825070457964476,0.001225933718692833,0.00838018050222266,0.017207414178452618,0
-0.005914911339195782,-0.005377953465689874,-0.008364539697079886,-0.015582723060804092,-0.02624782690017388,-0.0378779953243357,-0.04629514886724249,-0.046913643654714114,-0.037197305779745955,-0.018471897255947237,0.004335652742167898,0.024905251645770225,0.038221467894118004,0.042543443872272206,0.040130473030323646,0.03571950767198174,0.03327017338217995,0.03396362253992525,0.03675702988787703,0.03988808314731587,0.04180728032181684,0.041381113696308904,0.03769153588611782,0.030036661843244317,0.01865813677198408,0.005513608464283602,-0.006202698541352965,-0.013957806621490623,-0.01722674380896496,-0.01687337920248124,-0.014169597490763281,-0.010677132405109115,-0.00800940454781668,-0.007177591131764758,-0.008139846513506986,-0.00940605827544248,-0.00823849655826735,-0.0022037958665195485,0.008687323367771567,0.01965910202388985,0.0198121941223259,-0.004804331882154268,-0.062193755586373516,-0.14276219920530764,-0.21108710559314575,-0.20926354826373716,-0.07938507415163365,0.1986583444118179,0.5744754585520482,0.9263065276664376,1.105599356139818,1.009647264175355,0.6396228116085163,0.1064193449577168,-0.42125797285323957,-0.7957963330058568,-0.9501515197097904,-0.9071589758321994,-0.7433650524089669,-0.5398031988129606,-0.35088804024219356,-0.20037964637677738,-0.09311939329401257,-0.026204573892324765,0.007280931164516613,0.018020485414791503,0.018294715676998516,0.01771771926007351,0.020632070048432885,0.026898234762600323,0.03404580561233378,0.0390991254825473,0.04013988684398534,0.03727865532576276,0.03211527418619396,0.026185117300422688,0.020128088597628605,0.014072707412067249,0.008286374436797065,0.003185274716643585,-0.0011778719270725997,-0.0051600280199831285,-0.009080781819073567,-0.013168490392340918,-0.017875659437621757,-0.023747576359749552,-0.030682711021641898,-0.037487963281269146,-0.04235069359323032,-0.04408457226945571,-0.04312429396454903,-0.04099026628217219,-0.039075339886385056,-0.03810277971877581,-0.03800616505889664,-0.03811051432439166,-0.03744793878776153,-0.03488081154048391,-0.029425166597277123,-0.0207052113088281,-0.009058540389472286,0.004776593839898568,0.020146717784225027,0.03633516286000557,0.052078981156528266,0.0665770655599351,0.08093696691904326,0.09719190164956869,0.11625408062160211,0.13738002067493751,0.15875693169988894,0.1787674996340449,0.19695565721080519,0.21320306189396138,0.22682869989735482,0.2373489052364601,0.24506563349917102,0.2500251980972479,0.251029159147579,0.24622816754460966,0.23399361235786242,0.21302431990756932,0.1827123044332238,0.14393729260586316,0.09930723536743119,0.0525733360665472,0.007565094178220037,-0.03283794557463476,-0.06735777034197526,-0.09611681898519822,-0.1194567558580262,-0.13752523652408172,-0.15112405118319738,-0.16163125321144323,-0.16985084853828675,-0.1754663810712453,-0.17749576292075428,-0.17533111512525815,-0.16936131222696788,-0.16053913093039895,-0.1498556292535883,-0.1383485071019264,-0.12706380132408207,-0.11687720705210712,-0.10822258856897916,-0.10064562987344502,-0.09304475235366731,-0.08460934732877606,-0.07519312740316347,-0.06505044768087564,-0.05450434306230047,-0.044026709572757616,-0.03461149948126109,-0.02720637280654881,-0.021723432707429827,-0.017229786001758545,-0.012713493727704517,-0.007547648065441417,-0.0017744545107103472,0.004116380329980716,0.009755772556488816,0.014973302353549368,0
-0.011192744161374462,-0.012177255869290032,-0.013586909867478982,-0.016809674760146505,-0.02243580400990368,-0.029017872349651478,-0.033071462984388324,-0.03067974002655144,-0.01955876674203506,-0.0006463815523774168,0.02134498038276936,0.039606909498673196,0.04897617317722877,0.04910765658158151,0.044386989878648773,0.04022934009279188,0.039345248061773405,0.04140272186451745,0.044471699077075606,0.04611021029395604,0.04456178575348298,0.03971751034511265,0.03260338124948241,0.024174923597932045,0.015150914785482288,0.006497736715659178,-0.0006938743284684249,-0.005877367658378733,-0.009263756345173737,-0.011221977270464499,-0.011722612151045662,-0.010366742693410503,-0.0070253953475912685,-0.0025198932266803226,0.0017293699143277495,0.005018729172831866,0.008434602235867866,0.014057101874364904,0.021865993999604715,0.026971577858404604,0.020397656031659325,-0.006448495037737759,-0.054947600671492465,-0.11063371583392902,-0.136764310751255,-0.08087149516504236,0.0979923015346298,0.3920357936735565,0.7237270339427526,0.9631890657315799,0.9852264529257887,0.7376662490276522,0.27695464384667523,-0.254725706402777,-0.6980434721373572,-0.9481710195433493,-0.9879893134672943,-0.872145006560746,-0.6822337307246753,-0.48466625665447144,-0.31347491137183764,-0.17765312383872536,-0.07624355386465291,-0.00685884001252195,0.03411966247638086,0.05303744213334131,0.05777095340266912,0.05578935911119154,0.0532940189816843,0.05414542130731196,0.05867469223156802,0.06400821894168933,0.06607805864460885,0.062315296316822685,0.05318645998264929,0.041083775638745115,0.028177084299952908,0.015880295662576913,0.0055376767192223154,-0.0017497034126473,-0.0060864030336553465,-0.008619960350111281,-0.010192052848695949,-0.01094255375452533,-0.011387470130916564,-0.012904021374071399,-0.016642179939099187,-0.022316499908111204,-0.028336894787722895,-0.03302872802426076,-0.035570184588918974,-0.03626296902275223,-0.03611253787626514,-0.03562287884368613,-0.034499462491984975,-0.03271625722865783,-0.03058614812760901,-0.02772862436055711,-0.023086811490336284,-0.015516741211330376,-0.00392286426956588,0.011853614008888094,0.0301736849503561,0.048582503484169925,0.06521510445141503,0.07957740910311907,0.09292667493736696,0.10712584178986037,0.12274655453104309,0.13910613934920618,0.15575859490475702,0.17280486865638683,0.18990065879605086,0.20596625975978236,0.21997984497935544,0.23114516737002805,0.2383792313469893,0.24049963330383614,0.23660600731404752,0.22608919031550342,0.2086883704245893,0.18446574353572692,0.1535916183077296,0.1165431897318343,0.07517805781969075,0.03309222205102541,-0.0062861808824430584,-0.04159713995949615,-0.07289684604412747,-0.10002289254602044,-0.12235909880647661,-0.13958231972585167,-0.15209363268203557,-0.16074681704788524,-0.16611284743305746,-0.16832734285609122,-0.16785462849651062,-0.16562288151879456,-0.16218978522240146,-0.15748524696835758,-0.15107816636266924,-0.14233078747552835,-0.13106019036178052,-0.11804735777954814,-0.10465094766236545,-0.09225081800609175,-0.08145650636467314,-0.07176390917220492,-0.06260640571180973,-0.05390438899550785,-0.04541610781074221,-0.03682188851969571,-0.028338159808564547,-0.020652041824919382,-0.014394683532355183,-0.009621190737101954,-0.0058483842542072055,-0.0024929699571273715,0.001036848055066781,0.005255460394879126,0.010159303285024134,0.015133113225052619,0
-0.0025155124582684624,-0.0017301252272704016,-0.0016053123751362973,-0.00474576105545072,-0.012069932815055794,-0.021283083529534928,-0.0269971658228794,-0.023121820478162195,-0.006112438459734264,0.022130775343546263,0.05319962161758207,0.07532791559855428,0.07996602172468052,0.06702313543221033,0.044772651022658046,0.024685640075096354,0.015062298963170566,0.017446460626655443,0.027303440798296327,0.03764041260981374,0.04286093735972471,0.040931279593505704,0.03307134291434476,0.02166542659481111,0.008811213291559915,-0.0037508622950141284,-0.014730730009835663,-0.02313438260938104,-0.027632044309976712,-0.027344924066082757,-0.02332170331021028,-0.017897365351875204,-0.01297841547754668,-0.009436166471457532,-0.00716235080745987,-0.005296125905362703,-0.0025606064184447103,0.00223803083792628,0.008977946576335211,0.014677370613370449,0.013105535099313496,-0.002568283865676508,-0.03330843629451315,-0.06654929000367159,-0.07198268630409078,-0.006833312503681611,0.16383652905492768,0.43640016856629577,0.7465302614887548,0.9782907931431738,1.0120654681498071,0.7890479717214315,0.35046796558591264,-0.17595392135388666,-0.635802951938114,-0.9193143608402994,-1.0015055538847566,-0.9303752154560057,-0.7805679069184208,-0.610335431602174,-0.4470153729897231,-0.2978645252443671,-0.1669112822906102,-0.06233911998130265,0.007747881278102664,0.04281946161183979,0.052099525158737586,0.04970362860387143,0.04717943245236632,0.04938683093703546,0.05551492382127669,0.06209277017742223,0.06544469360553581,0.06361542897415311,0.057197970842100536,0.04840115786766823,0.03955306339413477,0.03221981395594145,0.026685691986974274,0.0218971687852378,0.016574880798066145,0.010521877076812241,0.0042735078184900546,-0.002091731751901556,-0.00887836881505238,-0.01609708712995784,-0.023411548448182933,-0.03015620030140378,-0.035379044562896686,-0.038393724537561444,-0.03918542165779633,-0.0382526700559811,-0.03653654158662296,-0.03511639607721791,-0.03438915594125325,-0.03384938316795896,-0.032494611516108864,-0.02913267810015251,-0.02282559591402464,-0.01335121293328161,-0.0011138822493423385,0.013083392384005512,0.027855930042057907,0.04176167939758148,0.05477799635112691,0.06841002921072697,0.08439055437035102,0.10407301693792875,0.12786672739315405,0.1541310848096672,0.17968445259646915,0.2020539338208957,0.2205523421782864,0.23548801451597412,0.24756418267005662,0.25760571350597217,0.2656927591323722,0.2708088992935835,0.2712174156842756,0.2647176385192529,0.24929035914381503,0.2239389063780269,0.188997374937976,0.14613419929459437,0.0979317398878992,0.04722618011164279,-0.0028051023550063614,-0.04863561701105095,-0.08777636723080343,-0.1197788446625832,-0.1453203125614321,-0.16526770252646347,-0.1807737972300376,-0.192910635111297,-0.20195594926261984,-0.20750903774424878,-0.20892740582276803,-0.20583619637843314,-0.19878602057881323,-0.18898647796324633,-0.17709342313845133,-0.1630745169939315,-0.1473077960813207,-0.13072829165385613,-0.11431094154130451,-0.09903067947455087,-0.08525676310892893,-0.07222253435250704,-0.0591446276277319,-0.046464427588955,-0.035562787070229904,-0.027572463271253823,-0.02239225612127183,-0.018668733686734582,-0.01492374321131144,-0.01072521520284405,-0.006437408858114866,-0.002026969494987388,0.0033035443057429226,0.010204216480536508,0.01827625254321612,0.026187497444622808,0
-0.026474123165344803,-0.024493063902936655,-0.02103668554366255,-0.018920698666374348,-0.02105074561036647,-0.027174987703381177,-0.03325194306304772,-0.03406302753712657,-0.02615469227278159,-0.009815003157139008,0.01049237906729589,0.02822841433323822,0.03833451314667875,0.03989031634827563,0.036120130256639585,0.031744723392744645,0.02993770842092894,0.03114005919172043,0.033870967411686444,0.03637225374352424,0.03762832412449319,0.036978471136607766,0.03346245896330909,0.026264918545664564,0.01582355297618775,0.004152883605876309,-0.006207513554519817,-0.013701053932605841,-0.01812496793522024,-0.019476127398187555,-0.017466102311162572,-0.012788983447549876,-0.007609326468635549,-0.0040503604303586405,-0.0029145490025033207,-0.003633958377028637,-0.004155752705068532,-0.001353040508147536,0.006571384009970019,0.01678024699391473,0.019921255934992856,0.002524735019043029,-0.044600331128123186,-0.1148562337738565,-0.17720524144177385,-0.17809147517717652,-0.061404885917505855,0.19609664452281347,0.552028528365026,0.8939292385596135,1.078694662718033,1.0021683834697233,0.6577572287812207,0.14566883314044587,-0.3739213484900139,-0.7558094314412181,-0.9294742253599166,-0.9115808413710053,-0.7724634232178923,-0.5881101327635175,-0.40965609123702423,-0.25940975888096385,-0.1424061237790782,-0.05826267548060184,-0.005335161297165891,0.021039364411485323,0.029642968534017405,0.03073323450920605,0.03175037689382717,0.03499651538956587,0.03929208800861921,0.04293773140996007,0.04453686577576441,0.04315626586984495,0.03903795628329461,0.03309510824588541,0.025948975621047497,0.018212626993380367,0.01070593654943333,0.0038991225197509555,-0.0020196876526029015,-0.0067426697825287915,-0.010342505137112634,-0.013515144873842797,-0.01657806967399959,-0.019214298539198732,-0.021694680831130405,-0.02508296835920152,-0.029663406500187166,-0.03413537982963351,-0.036997962190830555,-0.03807028854836148,-0.03827514417424587,-0.03869348526393668,-0.039903844118014856,-0.04150195375934734,-0.04233885682753969,-0.04129607075944019,-0.037503273165838055,-0.030535369469579295,-0.020729667391925898,-0.008353290042489405,0.007015057697438205,0.025130834698040255,0.04422085040618732,0.0625947754734529,0.08028927971560111,0.09863704837596148,0.11874803268453561,0.1404988232421686,0.16288918524818732,0.18505257872413494,0.2063743446926921,0.22600552387691736,0.24284154086387771,0.25584773320280796,0.26411875098966314,0.2667597526652899,0.26317661255734776,0.2533472666251641,0.2371544105161159,0.2135302978550927,0.18106316956721707,0.13956398787842575,0.09104872033248419,0.039788056585002236,-0.00899239998743883,-0.05133223992960034,-0.08573094029730748,-0.11248985415910201,-0.1324989029125585,-0.14694998811218118,-0.1573947851150429,-0.16517918665699816,-0.17095921736663228,-0.17474302660837795,-0.17591072773195027,-0.17327018564090524,-0.16571136959605667,-0.15326066795528817,-0.137730441454939,-0.12224964224356175,-0.10981205668181425,-0.10194805201746904,-0.09818503466393595,-0.09644918298481589,-0.09426868506463167,-0.08982658578353427,-0.08223398677071804,-0.07173356369240734,-0.0600789688755969,-0.049724148010632144,-0.041858471115546705,-0.03554259865866434,-0.028994957442422795,-0.021568432877330415,-0.014028192766070383,-0.006854515318598861,0.0007069065851983865,0.009545543714398714,0.019624841756090926,0.03025357449352151,0
-0.009044252668331799,-0.010513406544917165,-0.012688439779415644,-0.01586658144575443,-0.020599730478001607,-0.027068684635388106,-0.03314830536243154,-0.03360384531792667,-0.023393579677050823,-0.0028774832795148346,0.020835913528207965,0.03805185306705809,0.04251274601735744,0.0352773227952494,0.02376635471270489,0.016316341234319024,0.016838103404204472,0.023540636819005017,0.03174673013857223,0.037989821380206464,0.041329363750404996,0.041578175666564535,0.038087567776905376,0.03029197737478202,0.01892472410693216,0.006419783479540527,-0.004688122420225638,-0.013488959305306336,-0.02017807128706813,-0.024394075539938852,-0.025039597741532256,-0.02188587810937006,-0.016893389538374142,-0.013593087765668772,-0.01451537247563026,-0.018842186802589374,-0.022343440897417684,-0.019515382863567472,-0.007972025194884935,0.006862889882906541,0.011771406941536425,-0.007595856781630313,-0.05577113579307246,-0.11659198233855546,-0.14934559272655468,-0.09948400414181263,0.07425508984442576,0.3664978233881353,0.7063254460890895,0.9715754561037624,1.0387477462712063,0.8462124816677408,0.43228248569542166,-0.07844061912683126,-0.5340612952309087,-0.8243045816289406,-0.9187691964760665,-0.8578809974381172,-0.7126913049122108,-0.5446486875870564,-0.38769050488068624,-0.25367158716263305,-0.14564214666258068,-0.06498421857536,-0.011148823130672083,0.02004770595182294,0.03546344534304647,0.04217517628197438,0.04608819464157011,0.05105223529869456,0.057800997404140964,0.06419199995550845,0.06735362456758748,0.06584151507945893,0.0600994932031672,0.05165484946327533,0.041813632755982974,0.030918470458016864,0.018957617196635943,0.0063129005003781085,-0.0061234875753709075,-0.01713319600248264,-0.02584523255905518,-0.03255678908315929,-0.03860001762639612,-0.04483196850069213,-0.05023851140008526,-0.05281949276735826,-0.05182893837485926,-0.04847593426152869,-0.044957076800911176,-0.04341493592753218,-0.04482423143605645,-0.047980727029458804,-0.05011122402023452,-0.048813538359438205,-0.043564171594853554,-0.03593737126666268,-0.028055485003830583,-0.020389065650278218,-0.011404995877737537,0.000883079402206559,0.017316297321227487,0.03707971204839955,0.05853822278916783,0.08033215507870653,0.10169412815672749,0.12241348313973112,0.14278830449859017,0.16348454053784042,0.18497574301224956,0.20660851980018025,0.22660894388304145,0.24360360378783416,0.25777416839741085,0.2700167517741297,0.2802489102204649,0.28680867957308565,0.2872038198917901,0.2789882991901771,0.2602832792244163,0.23031084113238334,0.18985086445555308,0.1413100471422078,0.08797541842518386,0.03332311572721524,-0.01874712864645385,-0.06431148666353059,-0.10096602582628623,-0.12870967076368423,-0.14914662008176266,-0.1640136827641629,-0.17469632918886055,-0.18251591680875728,-0.18824259293246315,-0.19133484572881457,-0.190660122963943,-0.1858498442258669,-0.17767036535018663,-0.16770350302557513,-0.15753457103377275,-0.14786220420822746,-0.13853999591225305,-0.1294224020331402,-0.12082591607192776,-0.11285153296842547,-0.10489519620443172,-0.09629325869842603,-0.08684974322106295,-0.07674108285312199,-0.06625165991987886,-0.05586944786097036,-0.0466641801704986,-0.039673145925852325,-0.03473141526179292,-0.03039534840087502,-0.02478623985026806,-0.016726955207523198,-0.006422842446527001,0.0052073740758532445,0.017117929374385957,0.027477606735918703,0
-0.026206183003452996,-0.03807744892115423,-0.045404412263759186,-0.0478693446556609,-0.04591630582368649,-0.03882506340118061,-0.024816993197542957,-0.003770182204720817,0.020170616287657393,0.03941517698033361,0.04703382970533357,0.0408646714304516,0.02529464326665544,0.009732590303370398,0.0032873743719744044,0.008814290857035015,0.021772575518509713,0.03452921115895546,0.041582946896592615,0.04173346499816541,0.03676619494654045,0.029176900413215336,0.021132128747774856,0.01422575831060791,0.009231579031681156,0.0060313227017335744,0.0035327148101150633,-0.00011852980765421697,-0.006452830208704464,-0.015411150836772507,-0.024833891284511796,-0.03138975537920659,-0.03293657742527941,-0.030045301950170328,-0.02440833088330422,-0.016045785717921188,-0.0033104675802858165,0.013815218683373489,0.030209036122004436,0.034870659280479256,0.014211387328158433,-0.04077375162458162,-0.12470805885657252,-0.20917536180208768,-0.24237061537732213,-0.16421420957716681,0.06254502879319024,0.4178847783779418,0.809741523815972,1.0969852890712,1.1482752763883317,0.9093412267880894,0.43794832499900055,-0.11856244434066932,-0.5926138318011368,-0.8716352044926137,-0.9350752620019395,-0.8377099633799023,-0.661516830633402,-0.4733308353245035,-0.3090749503812539,-0.18021885496744688,-0.08711624640454614,-0.027397697949783986,0.003369338144594985,0.013716836965524101,0.015118450991294892,0.017367062430762067,0.024473214957678416,0.0342465436930556,0.04148373973392563,0.04223808440431618,0.036369019102737724,0.02698887460753249,0.01774297431879405,0.010514311598525755,0.005267498092161711,0.0011515875561219809,-0.002810764643622319,-0.007256281488881699,-0.012092194055154598,-0.017049014091528022,-0.02211331859857471,-0.027217920689669516,-0.032546388883077995,-0.038631246213186025,-0.04523644912097839,-0.05090287309760909,-0.05401597347394444,-0.05397481566599198,-0.051705771225232434,-0.04935692992119911,-0.04891926941488457,-0.050761593323481985,-0.05343090893583674,-0.05476369460190266,-0.05333340458437949,-0.04903752474198798,-0.042408762180887606,-0.03353890523530675,-0.021912499462787123,-0.007108183790417847,0.010681206439382036,0.030784655891009954,0.05255975402022523,0.07532452259707548,0.09789893522834016,0.11949058576235154,0.1408663584877314,0.16323663451360235,0.18642117173309186,0.20897382521532612,0.2299145970676043,0.24991963758763414,0.27016315298904753,0.2900122774061601,0.3062844132564087,0.31439556947314173,0.3102305735079914,0.2920686891764837,0.26155565945019305,0.22286411781934481,0.1807536456836723,0.13833957580072076,0.09576000305610718,0.05164578850283299,0.005920745249040654,-0.03963580487168834,-0.08260947016150147,-0.12047882118469624,-0.1508992570365608,-0.17266223228921135,-0.1861363686362299,-0.19274871304074348,-0.19409779027017218,-0.19096325753594884,-0.18334780807292017,-0.1718477852406106,-0.1588734418648641,-0.1484387816354807,-0.14388467664066235,-0.1451524346688367,-0.14835874508416938,-0.1478148448260675,-0.1391006550594005,-0.12156651055824891,-0.0986936866727344,-0.0765213228058936,-0.061270540148357915,-0.05646889198496771,-0.060658482431917,-0.06806667394112548,-0.07186442070618862,-0.06721700922751014,-0.05335950406215645,-0.03426079749186304,-0.01631053426455322,-0.0041325322774807445,0.0016450353394922672,0.0032126838878454925,0.0034506158957140556,0.004733447412502308,0
-0.022109152550851816,-0.023804108951554288,-0.02290588934662251,-0.021209981841322487,-0.02051824573752994,-0.020241995892607126,-0.017438413747095812,-0.008660761816819419,0.007688139266458544,0.02953083347343146,0.051299209546250134,0.06633226079720311,0.07038741602955953,0.06417656073783351,0.05297498566913343,0.043592018651336675,0.040525140911351384,0.04353702164395479,0.04858031947254335,0.051414706183793873,0.0503860844149418,0.04613259007811067,0.03981405878907915,0.031870856721853906,0.021819343484687163,0.009613580382312834,-0.0026963314859117793,-0.011883295452124416,-0.016339420687310854,-0.017282171691092887,-0.017109855123168496,-0.016821540593470713,-0.015573270548332267,-0.01275423867755359,-0.00954980813271425,-0.007677449936615044,-0.006838348296597707,-0.004568517855594544,0.0008119587094732169,0.006996426829621415,0.006636780386972305,-0.010573531859898051,-0.051930175393889916,-0.11264788246944421,-0.1679866879942997,-0.17290550247842043,-0.0753835212592083,0.15505615233780978,0.4944776899094476,0.8501368987480786,1.085202211328914,1.080395424250475,0.799266487555498,0.3143109352019328,-0.22471066731295847,-0.6617183488846368,-0.9021589981334217,-0.9397878596456191,-0.8341197218424588,-0.6625322361914324,-0.4821847738431199,-0.32078666575281256,-0.18830657635897122,-0.08970924395533311,-0.028072364629392967,-0.001352623258572272,-0.000349866993671219,-0.011245282885512145,-0.02094896754001023,-0.02180409342912395,-0.01321982807005661,0.00010915945940362382,0.011944272376312806,0.0182021331784923,0.018686002261211546,0.016134873958458362,0.013567740068835783,0.012039971828570098,0.010497548700096313,0.007212046673934949,0.0014411686834337467,-0.0056724148649940735,-0.011705076224945245,-0.014667653432537349,-0.01425537452407431,-0.011377308399211672,-0.006956902707625265,-0.0018549773491440096,0.002592987772296081,0.004537752365047793,0.0018623602088525398,-0.006954262854888723,-0.021279078829548055,-0.03780505847827121,-0.05214025258495718,-0.061002291469874736,-0.06309766429569527,-0.05899731256865755,-0.05070058275759935,-0.04033470823727803,-0.02912925088392246,-0.017793057247989706,-0.006215333366520409,0.007914427232055862,0.02828507589389287,0.056614320199709064,0.09065441530649661,0.12505738692049545,0.15379510494543208,0.173175128093703,0.18391611810707664,0.19097592267380792,0.2011546146805088,0.21905217220630344,0.24384074201971379,0.2700186621468212,0.2910904298044737,0.3023919393177494,0.30194701889186293,0.28999685141936427,0.267923697275598,0.2378550632380361,0.20306490198468458,0.1676189929590731,0.13419612416229754,0.1013408004914621,0.06338007373218647,0.014986154831207278,-0.04259486552469555,-0.10018165322381739,-0.14637084359296565,-0.17485119426513931,-0.1871763496291566,-0.19029002816352725,-0.19171780536190708,-0.1956374702614077,-0.2020759680511489,-0.2088790969750437,-0.21371269947439553,-0.21442398638320517,-0.2088089350402569,-0.19520525241805653,-0.17393690164775072,-0.14876168257385233,-0.12668357111694595,-0.11469491651679818,-0.11471429211986835,-0.12112101233248576,-0.12414152174491527,-0.11642822759761404,-0.0972929077321819,-0.07231360505553082,-0.04941338198437579,-0.03373005564588408,-0.024642018046635662,-0.0174342970842774,-0.007676598277712859,0.005513126821231111,0.01878854203260354,0.02683824353368092,0.026544794031158427,0.020026997952960913,0
-0.02309015548344241,-0.025136005710432896,-0.02468850570314993,-0.026903869073861768,-0.033951379647088255,-0.042193356851470985,-0.043890344149651324,-0.032959870079144415,-0.009852826425967558,0.018579956464487422,0.04275430288757704,0.054551358014051414,0.05099884742341127,0.03605545566198988,0.018803871484698496,0.008606347468123535,0.010376690571920715,0.023032835306549475,0.04080235620829184,0.05562972435407187,0.06043310406524721,0.05221918878736954,0.03309455366631513,0.008931998764517852,-0.013227715462368318,-0.02821544653537199,-0.03478431996183801,-0.034762995813401976,-0.030324583795856973,-0.023054417348017928,-0.015319410788225777,-0.010187399509263492,-0.00909501630935598,-0.010993916752011714,-0.0136139813908545,-0.014580764429037711,-0.012365922535643434,-0.0069008987396182355,0.0003261748864257755,0.005124005573084741,-0.0008528659801696733,-0.02823071483756927,-0.08201549859590901,-0.14909271888119965,-0.18965480036146048,-0.145042659537733,0.03334797574535028,0.3455851241117188,0.7191367528706866,1.021964680612537,1.1166909097872668,0.9313390969802555,0.5033226927729911,-0.034768426760164936,-0.5195479440043935,-0.8308362559696543,-0.9337905406416411,-0.8713491310333149,-0.7206314915840952,-0.5477040442910118,-0.38787573932881303,-0.25196359070856206,-0.14182141397424913,-0.05978707285873322,-0.00756334441739474,0.018575611583039782,0.028236329809185556,0.03228425915259786,0.03769616796422833,0.04598435856734791,0.05452625731270372,0.05880788937110958,0.05541795289031008,0.0443504472157547,0.029143978793258536,0.015296957812608043,0.00752561571507682,0.007036994911526772,0.010780443448096099,0.013639309477587225,0.012122870530230543,0.006255983825420482,-0.00171873650785739,-0.009785478360119594,-0.017549308600444236,-0.026247991377346576,-0.03744946565861278,-0.05080404300804555,-0.06330677733876276,-0.07143763281554864,-0.07353657320952159,-0.07037381932429314,-0.06443898291279075,-0.058424504776067615,-0.053985915602159366,-0.05171477739612713,-0.05102314627511267,-0.04950988786790048,-0.04346362382349563,-0.029809301228266746,-0.00828600647798284,0.01766420318330241,0.04246793009054586,0.06135405634161466,0.07247861048624846,0.07771718998267062,0.08232081286490478,0.09277696854666029,0.11322703146864857,0.14346698751105313,0.18006647142844184,0.21811488873838322,0.2522098435327588,0.2781601139413304,0.29479464456703264,0.30359674490472105,0.3069689628296119,0.3066374248641784,0.30197901719422443,0.28980958166449505,0.266874871888026,0.2323192317446618,0.18807123853885382,0.13809373598292304,0.08714573370493714,0.039406972488572736,-0.0028413160343477017,-0.04040643792291686,-0.07665660927288895,-0.11458442829116817,-0.15336522458206234,-0.18702508888395603,-0.2072124181422509,-0.20932420299239915,-0.1972486832936614,-0.1818956837242398,-0.17391163859165285,-0.17616151782036288,-0.18227585341227384,-0.18285520273672878,-0.1737272110514267,-0.15874251353348567,-0.1453316703881377,-0.13720508113046734,-0.13046774465683803,-0.11711042732207469,-0.09331589443884838,-0.06468211375930581,-0.04313269474271626,-0.03843485591600269,-0.05155157877932799,-0.07390988163888518,-0.09230568612370028,-0.09637350508353716,-0.08369396570973683,-0.0596728179881406,-0.03329632544020847,-0.011731244581331839,0.0028134584520952757,0.01214585030481104,0.018817862678982188,0.02385266651877324,0
-0.0036795992141727,-0.01026273230290078,-0.01640456383302165,-0.021984752929791226,-0.02816210230345715,-0.0347127598043209,-0.03830234570781306,-0.034058072662794724,-0.019086585320499207,0.004606623326719132,0.029889816392852035,0.04803528313793857,0.05416199669903289,0.05012815564847131,0.042538410878771506,0.03760175605723689,0.03691031656893061,0.03781876594983271,0.037358224993637154,0.03498009547587196,0.03184826832060123,0.02843385113824813,0.023815698317776177,0.017214672502059214,0.008955037497978586,2.5524883740767924e-05,-0.008762944403918274,-0.017167183545625728,-0.024815688143552988,-0.030642763741731874,-0.033218991431737024,-0.03133193283104619,-0.02502069292388995,-0.01637769232775803,-0.008615969831774319,-0.004054964314472533,-0.002585196038431561,-0.0015806560490443796,0.0013996575361083033,0.0038531915674148917,-0.0040042217599222645,-0.0352908666624192,-0.09658643312426461,-0.17523193671186424,-0.22987113074076557,-0.19643680798195165,-0.018478278634917564,0.3093900631905771,0.7132675747535594,1.0522306287952514,1.1756699970265276,1.0001529528017536,0.5591722393239053,-0.008454905491036557,-0.5255785102606048,-0.8583184949537543,-0.9651118931900302,-0.8904019047526562,-0.7182663881342487,-0.5236343349284936,-0.3493643785038291,-0.21023672536820892,-0.10734973185081695,-0.038395063519156045,0.0003392548683891876,0.01581053362350933,0.017899201491597592,0.01627690773102136,0.017353421084409328,0.022939999822206736,0.03117717979973115,0.03925296903274387,0.04538115178624948,0.04843063317796096,0.04716898247246062,0.04093689856937658,0.030531022730307146,0.01789839302509969,0.005265536801644762,-0.005414313434817453,-0.01317184961615268,-0.018718148533320926,-0.0238190667223968,-0.029829471076127795,-0.03660846608689403,-0.04225833278476434,-0.04467990485089126,-0.044223846718035593,-0.044233228333712966,-0.0481831399053303,-0.056166803365583676,-0.06452635712456653,-0.06881989216206603,-0.06711521962836473,-0.06103370630700919,-0.05394109574096809,-0.04813765653318062,-0.04317159326745762,-0.03635358397700271,-0.025564003895661096,-0.011441495283043404,0.0036889930702420706,0.018509952499560153,0.03429511916444285,0.05377765291220381,0.07806671554553823,0.10526286319824761,0.1320934659328747,0.1563064008846552,0.17796803454305485,0.19889476529408406,0.22077401591409135,0.24365925312400197,0.2657804457429888,0.2847772504678743,0.2993068418516151,0.3089805985008849,0.31285646455927957,0.3088329913135864,0.2946255009931301,0.269064235785895,0.23291120242758903,0.18913244424784525,0.14147139217306748,0.09202725162814245,0.041488024393969716,-0.008762774472913952,-0.056333093782970065,-0.09896544076665738,-0.1352730729401399,-0.1644930308955483,-0.1859039197296709,-0.19893086004759322,-0.2041011936947562,-0.20378668854261892,-0.2010859094351143,-0.197855331110194,-0.19420516079077485,-0.1890746703133414,-0.18113774042577385,-0.16985216307326897,-0.15570681855432225,-0.1398669537131012,-0.12391200055300018,-0.10961490946500399,-0.09898769076493213,-0.09365157467202195,-0.09295543801684308,-0.09340526693292668,-0.0906671265456941,-0.08205814329404824,-0.06777560771821511,-0.050361135072743334,-0.0331962010898595,-0.019593376553331807,-0.011928325206039904,-0.009805754748699526,-0.009477456338667756,-0.006351761261530451,0.0016803322216991275,0.012931722975402214,0.023186499080437354,0
-0.01582199252449346,-0.022509309033664788,-0.02491058574533315,-0.022368568864090953,-0.014995960622586518,-0.002996710778948101,0.012742564238784069,0.029821843155642475,0.04364671434001548,0.04864398697489365,0.04205909666427525,0.027103141576102094,0.012336649701177545,0.0067063295063113475,0.01338254999866255,0.027833337824404895,0.041136092734761445,0.04513014732521031,0.03666829288231292,0.019012572312430098,-0.0005618028962930504,-0.015045678732133964,-0.02087636989813859,-0.018893534295412746,-0.013335758835119317,-0.009124231831970357,-0.009080774829990056,-0.013203191974427757,-0.019675034419636122,-0.026443165656023497,-0.03202536587441537,-0.03446620127691619,-0.030609727499553645,-0.018296726527972422,0.00036237934334769004,0.01890353365112125,0.030689397858095813,0.03361980229991869,0.030799127707649095,0.0257928896167914,0.015806385283406256,-0.010164417436995575,-0.06283543505179602,-0.13629255792460818,-0.1953619844975724,-0.18095687874368588,-0.03822113011297648,0.24452427175227223,0.6093185447214878,0.9354491791716845,1.0852472088297604,0.9708224802427781,0.6035172888676459,0.0929839017251603,-0.4040659340883985,-0.7543822579175813,-0.8990532300670118,-0.8603335353663228,-0.7090875907766561,-0.5205379266068981,-0.3456152777895559,-0.2066302296319002,-0.10755275390164401,-0.044632667915632106,-0.010517355199206085,0.0052612980343394525,0.013557956194948158,0.0209589327044504,0.028260128361497154,0.03301947338647423,0.032932756593059505,0.028232520400135516,0.022217064291051677,0.018953466137806012,0.019934215825408073,0.022929800085507428,0.023959572333626798,0.020307600811408862,0.012199512436786592,0.0027522961110930215,-0.004074470994945307,-0.0067623324231668,-0.007396113469170622,-0.009807125657494078,-0.016880427550512993,-0.028247533429735273,-0.039708406564154426,-0.04613666707036401,-0.045870667598499185,-0.04185183590552552,-0.038877944601463564,-0.040281542466322,-0.04589351575102629,-0.052075949672492516,-0.05452680280909758,-0.0515337150423556,-0.04440527716388824,-0.035864497136186425,-0.028567456741162837,-0.023881291939649878,-0.020869005140869666,-0.016342270351239595,-0.006927982899556382,0.008043676563969565,0.025695252635177638,0.0412223702323077,0.05089950020028136,0.055501378346844425,0.060853372551467305,0.07360690117660455,0.09609941950002708,0.12484573870413308,0.1530581991985117,0.1750260902254104,0.1894810712771586,0.1994488947011181,0.20882802961522798,0.2191685847800943,0.22944067106734956,0.2374327271744391,0.2407958264649142,0.23816002820023352,0.22985468859093738,0.21707270742288537,0.20034141952630197,0.1785341296313017,0.1491231028119528,0.11019174255571337,0.06299405845572709,0.012699375256679524,-0.03365285050406876,-0.07067605532407881,-0.09719864194772641,-0.1163293630242054,-0.13293422407980796,-0.1498733805615389,-0.16591669276823964,-0.1776492344115043,-0.183263948807021,-0.18351586911509066,-0.1798183339191435,-0.17308705281549408,-0.16391420475285665,-0.15291864525305526,-0.14097873085801,-0.12914069999780248,-0.11844274450072217,-0.10969930756681708,-0.10282252780630997,-0.09668289115378727,-0.09037169889398006,-0.08375250930314697,-0.07614828688344917,-0.0659643440858735,-0.05232101912184845,-0.036403798764598885,-0.021422231195319965,-0.011281210731423262,-0.008192101828456276,-0.010530230229038776,-0.013274926612797753,-0.011700199400881722,0
-0.0122351833158761,-0.014352152129257221,-0.017027295758615887,-0.01990654929839229,-0.023000619105986043,-0.02592713587256137,-0.02715136033924515,-0.02473903918357812,-0.017231691040725822,-0.004313570612065831,0.012066798075143735,0.02740227641650661,0.036733507066219,0.038143845704159525,0.03423468513805676,0.03001418680236708,0.029376820274513764,0.033009687706634594,0.03872666328583673,0.04319890778357499,0.04368206661240866,0.03924725375410898,0.031123260256830647,0.021778223234632736,0.013277372285069946,0.006263261429781513,0.000350767261869429,-0.005085656089986601,-0.010501298300510218,-0.015554230468330323,-0.01924758013077296,-0.02125401335715567,-0.021987687286811084,-0.021379225195030403,-0.018629408022038035,-0.012833915584332112,-0.0035683793950744315,0.008211680583567072,0.01926013342047674,0.024223772307458404,0.016505708305518355,-0.010394071094438732,-0.05864847865584198,-0.11799208440088686,-0.15783985634156353,-0.1285575748042525,0.018558940936655926,0.29560171154162246,0.6482993968094021,0.9577150320026159,1.0849160120560353,0.9420558806938204,0.5456628333424292,0.014029218441175051,-0.4897776793629348,-0.8332625273867883,-0.9651406739476915,-0.916884225746077,-0.7633706111535723,-0.5755073671001032,-0.3956815340605837,-0.24112170090692295,-0.11811069439657716,-0.030650276686634687,0.020244240431483415,0.04042125696529067,0.042025185768877954,0.037914552117533036,0.03604715737901388,0.03768709750529016,0.039956783626161015,0.040277469339382956,0.03887529505308322,0.03778482054630054,0.03822331514481177,0.03909698920629576,0.03791904460151832,0.0329194918078671,0.02403853262007346,0.012647137734541748,0.001002923559289999,-0.008635462136871948,-0.014866650198693382,-0.017642411941447327,-0.01858616207641102,-0.020265185109825144,-0.02451474272859039,-0.03148224306461575,-0.03991247607710299,-0.048029001697172606,-0.054499898908065766,-0.05924174590688737,-0.06324487913110492,-0.06716940896376458,-0.07065213956762731,-0.07296274226925266,-0.073228513509115,-0.07008874755591465,-0.06206218012479037,-0.04887829703921728,-0.03259451369938521,-0.01707033365530644,-0.005950063837290325,-4.747820337569139e-05,0.004433848441816428,0.01416366846340526,0.03373402198543426,0.06233973324600623,0.09493797545820798,0.12588725723787078,0.15219485538426286,0.17444349676269533,0.19476039654769978,0.21424137916871744,0.2328355031947669,0.2509952084669754,0.27021480516266605,0.2910392672226908,0.31034973467596144,0.32165292309979104,0.3191305082716946,0.3018684323054417,0.27436444099657437,0.2426536797290612,0.20957537569183038,0.17368161632245852,0.1317952225507298,0.08205664336037347,0.026152829966449034,-0.030313128380219122,-0.0805934731791665,-0.12078237949387897,-0.15103974285763783,-0.17312245689324612,-0.1879349802699261,-0.19564185536103657,-0.1967814591821126,-0.19292518911609596,-0.18687923908885185,-0.1817220868001579,-0.17877612534008608,-0.17693431389433661,-0.17405631875146152,-0.16871913824594648,-0.16090417693618164,-0.15124443665982618,-0.14032194169439316,-0.12885042629448845,-0.11759422598335952,-0.10698550127488621,-0.0971763563168804,-0.08827751355952466,-0.0802676152011076,-0.07250127340618709,-0.06342652521288797,-0.051415425993889145,-0.036301544552783255,-0.02000628413418655,-0.005798936067407799,0.003120105099803417,0.00549585943828803,0.0034931234978466327,0
-0.0038955891857436215,-0.010015135908981319,-0.017659992980561277,-0.027556839177479784,-0.03845896981568314,-0.046558918052769,-0.04709635790261484,-0.03704440831926818,-0.017096183815779552,0.007840444567375699,0.029828889125140166,0.041498552140834796,0.0409782964663254,0.033549762276433706,0.02764275741598022,0.029132115371319208,0.03814979244879204,0.04938624871296923,0.05582524986402653,0.053342150722406216,0.042383392325051936,0.026602353886379354,0.010315330003541035,-0.0038040571810561666,-0.015216233917268345,-0.02400058871386363,-0.02947148450827772,-0.030898961339841803,-0.02909816282353921,-0.026206668451498622,-0.023560959247171994,-0.020137760309642833,-0.013699331391316997,-0.0035118155552490257,0.008325619787548448,0.017735265825675268,0.021145153403177575,0.01844823906050454,0.012838786586933036,0.005816769038496612,-0.007604674808646518,-0.03683177266148248,-0.085833927463789,-0.14074457698304366,-0.1630207916872002,-0.09785970886889848,0.09663958812030378,0.41113914332213286,0.7649644873371226,1.025916197787659,1.0675176516543508,0.8354147022403301,0.38274794290729386,-0.1509270255836247,-0.6065943364843024,-0.8775545260815912,-0.9438282717084264,-0.8561154233575441,-0.6909037411656768,-0.5103809837336926,-0.34738996407906464,-0.2129389067197911,-0.10973403134439799,-0.0389029881160422,0.0013176084549938877,0.018365582705725907,0.023238040237652913,0.025139608288660818,0.028538273990935968,0.033900835773388434,0.03992757225788606,0.04499477709981961,0.04736643024950879,0.04571604905993832,0.04029497942958971,0.03312077683641941,0.026608428711197677,0.021984028692981383,0.01891663794035823,0.016337159139211993,0.01308873916151472,0.007982962898241757,0.00019188248089612933,-0.009947861260664766,-0.020731548688394278,-0.03022100119727473,-0.03763328165532774,-0.04296365799444767,-0.0460177815466599,-0.04694671032582733,-0.046885777296449035,-0.0476280947147017,-0.050783659467596255,-0.05635271189512653,-0.06214753800363946,-0.06517100420842663,-0.06335885750161638,-0.05652623851069831,-0.04625241904396246,-0.03455194391030592,-0.02270346688421914,-0.011206466249322342,0.0002922672162338387,0.013417571780671654,0.030293622185071697,0.05185254428971429,0.0772629911475416,0.10464514176363063,0.13214182867172244,0.15873706294541856,0.1839398289453103,0.20688379411727142,0.22672540543971187,0.24379176353286516,0.25949485081619394,0.2750530059895471,0.29014578386904055,0.30250536402538253,0.30889133771708044,0.30648008944883404,0.2933095883114094,0.26835916472335475,0.23235840466625615,0.1879778954895567,0.13839490254505543,0.08596654148816836,0.03279874586391874,-0.01787756306544898,-0.062159438913962556,-0.09759400974483402,-0.12446904541006235,-0.14487438592572166,-0.160742102907322,-0.1733159974344605,-0.18356423719365375,-0.1915744751904,-0.1961758002900849,-0.19622754256822394,-0.19210760189869366,-0.18564616738470405,-0.17856076861262044,-0.1713053804951187,-0.16343251280023438,-0.15436016050725757,-0.14397067306109002,-0.1328833810010988,-0.12182370809386646,-0.1108535329286893,-0.09971809628888406,-0.08883384613466846,-0.07919135774523467,-0.07111222722215237,-0.06369960653296686,-0.05559191984053882,-0.04610803662332576,-0.035683893077963894,-0.02519880091622624,-0.015249448070091286,-0.006252414080263613,0.0012640800185212582,0.006735133248948897,0.009806480395200004,0
-0.010739083439868619,-0.014868132602744217,-0.01951761890299802,-0.023699628425655726,-0.026125263575505642,-0.026084062403189823,-0.023432070602347168,-0.01785910933057728,-0.00852014534853907,0.005018946075778358,0.020699834965447538,0.03346232830914418,0.03831406868551472,0.03423486506507331,0.025091645462612326,0.0172019654241187,0.01551127900009869,0.020905853174813988,0.030123245016107747,0.03790126977367795,0.04027084529471368,0.036855202618399925,0.030028734503408813,0.02203052197233249,0.013493784566826489,0.00440772874520055,-0.0046708051619767195,-0.01253201199698221,-0.017833067974688033,-0.019593055040045562,-0.017809162009895536,-0.014107140925588138,-0.011159755051029549,-0.010863455436104771,-0.012999760239760235,-0.015310177031964994,-0.014757177288937091,-0.009242765795389593,0.0006682059850826151,0.010518561067454841,0.012046226777317648,-0.004678777571717869,-0.04586165184718293,-0.10556908968752313,-0.15812494780657557,-0.1582451559841783,-0.05608185396376958,0.17339657676953008,0.5006846618998896,0.8328551581378656,1.040437254329484,1.0151839937016094,0.7288710005504383,0.25521030435630826,-0.2614273162637469,-0.6729097580654655,-0.8908063111703777,-0.9109270705972863,-0.7917044373264445,-0.6099996324213492,-0.42550797965494336,-0.2692491852333675,-0.15071744185146185,-0.06913482826080666,-0.019633842767799944,0.005512029142750556,0.016163460347220687,0.021536969730355522,0.026816891680292797,0.03245020769755946,0.036966659296262215,0.03985133337228981,0.041610758949830476,0.0424008197486822,0.041555677869548016,0.03835351637070407,0.0327626912690885,0.025549565731044728,0.018253287703339525,0.012332572395626285,0.007474314212957248,0.0017175168643001719,-0.006159007632672291,-0.014990971968339557,-0.022172609749378083,-0.025941210720148756,-0.026575062533370213,-0.025980191643496388,-0.026653503158894934,-0.030523010485306062,-0.03782172693710764,-0.04655858112071134,-0.05377834396705723,-0.057874045635967424,-0.059038171725462045,-0.05791487676575512,-0.05517223967355005,-0.05184303081624128,-0.04883254156554207,-0.04641126903325647,-0.04422532564085004,-0.041279006092326945,-0.03643489254646727,-0.028911239885837936,-0.017982509521936398,-0.002965853649641263,0.01636438793899234,0.03935484180228711,0.06420589591231139,0.08880852962459465,0.11170253687763437,0.1320335355304632,0.1500303842308189,0.16736839398591938,0.18558882350723155,0.204681631070931,0.22345086666773648,0.24021300566179568,0.2534783926916173,0.26258547030140156,0.26745508051238204,0.2677920094132592,0.2627420875860363,0.2513279416370102,0.23299235811971306,0.2076603270138376,0.17561106019906922,0.13737166394322042,0.09373772436727867,0.04649685839231238,-0.0008378733751027434,-0.04415513266626144,-0.08075027923596123,-0.10967317511646293,-0.13105092338037166,-0.14582646400860538,-0.15556963010019842,-0.16211072295716697,-0.16693092482286914,-0.1706054917970493,-0.1731277014918569,-0.17438334759942622,-0.17381843362975513,-0.1704915166656478,-0.163960342039852,-0.15458216174379963,-0.14318807444838383,-0.13100875624506525,-0.11962637351192129,-0.11052929090413421,-0.10421971918075498,-0.09949308847493121,-0.09393783907191607,-0.08558784926111007,-0.07429233289692475,-0.061451227813578285,-0.048681103710534954,-0.03717033401954219,-0.02779307075002596,-0.020858396845081808,-0.015841393510808485,-0.011900043112357723,0
-0.01708654148783248,-0.020252903993479447,-0.02338612757457755,-0.027009552301306174,-0.031236162412592725,-0.03462325531634644,-0.03372889843948497,-0.024763246040971767,-0.006590486951855313,0.01714909882441953,0.03887997741597946,0.050912038683367015,0.04978464577192715,0.03878616425722996,0.02642131172071444,0.020651681392270242,0.023592287491409014,0.031225294845955917,0.03747531810661949,0.038536214822896965,0.03446573491802917,0.028003100640216556,0.021885133986304567,0.016751582769427453,0.01157112928402361,0.005532593418834524,-0.0011049138064552402,-0.0073209299425395155,-0.011839656560364568,-0.013937300017100564,-0.01422286597626573,-0.014159568612730405,-0.01436579633043693,-0.013774387393550917,-0.010616571886641502,-0.003837584320820071,0.006272420580720034,0.018192290838347957,0.02881509294405928,0.03249098099612206,0.02169525458148601,-0.009113298671123218,-0.05693141386527033,-0.10325981459084196,-0.11160242186026982,-0.036272975003939514,0.15383871756230053,0.4448878430823656,0.7620459735224933,0.9867354653955563,1.0065396061526992,0.7735546872483298,0.3361691606487589,-0.1780854488856145,-0.6212579932490115,-0.8909754621917708,-0.964992440893044,-0.889420430228631,-0.7369934389107466,-0.5664214481019596,-0.40646215868467195,-0.2650000005264707,-0.1449745824562291,-0.051671757828490476,0.010377148185648687,0.043076093407886,0.05515540339896781,0.05711437624111814,0.05622325761857192,0.05510272793336264,0.053586620525891554,0.05146665580179919,0.049294757090102954,0.04726533073193515,0.044689934598466624,0.040940225384355614,0.036456249590180984,0.03223709836735256,0.028247718646206888,0.023036701607429527,0.01513867134369004,0.004580113880671123,-0.006769789710775916,-0.01638238891790967,-0.022925020608361463,-0.026713175154781,-0.028872108542277168,-0.03112835696395476,-0.03552814657894011,-0.0429610684289889,-0.052281207693030456,-0.061014086265569,-0.06662527242691921,-0.06789241901479917,-0.06538477738601503,-0.06041549319906975,-0.0541886519026521,-0.04789329122345696,-0.04254801318007865,-0.038232832787094356,-0.03386232846204372,-0.028064214252753437,-0.019832424374926196,-0.00837237094398523,0.007090739033475765,0.02708169674756932,0.05128085916390904,0.07846165253917164,0.10710904595875423,0.13553588427735289,0.1618949898248962,0.1854073924042814,0.20742502915546743,0.23035124009031732,0.2554433159354896,0.281575671296661,0.30578933309779166,0.3247885690708225,0.3359578376271581,0.3375903495617553,0.32880776365983916,0.30949784915993206,0.28020501545335735,0.2422187166240131,0.19779954340061287,0.1495791407852725,0.099553900269291,0.04897048706682402,-0.00110960318835239,-0.04933243024371441,-0.09401550321567573,-0.13337940635367562,-0.16560927448092277,-0.18919595717960797,-0.203750823948334,-0.21042806395108568,-0.21172079424266613,-0.21058179436949628,-0.20888671736175177,-0.20679393442776883,-0.2037864740108904,-0.19951342267920139,-0.19340112907732654,-0.18469447386583027,-0.17342196797099516,-0.1604514668278374,-0.14659139728529239,-0.1324385867367714,-0.11886413979081598,-0.1071208494607291,-0.09803721165291195,-0.09068254320574078,-0.08272999661039494,-0.07264445989374917,-0.06044209299499786,-0.04666522718427249,-0.03227433513396759,-0.01916136734832165,-0.0090363123291382,-0.0018493280781974146,0.003727181463515368,0.008782335072840795,0
-0.008590576815224562,-0.01321057037913417,-0.016762374939931032,-0.020371872178090392,-0.02349568456687131,-0.02390273221835883,-0.019224115184106546,-0.00895265232754434,0.004508651127438035,0.016613263451213823,0.023323900103818157,0.023547084939026977,0.019152885511459754,0.013369287560437098,0.009342034520735076,0.009192253774870951,0.013467862354909405,0.021130637777476754,0.02967729912277696,0.03545480817019493,0.034936041860430506,0.02648855564801404,0.011387023738033181,-0.006405728445502887,-0.021521649766038632,-0.029066986917334683,-0.026770630116092986,-0.016995457171051203,-0.006507561214597834,-0.0023340146290376936,-0.006874827544571816,-0.016894156863471135,-0.026600748765481567,-0.03156226803452571,-0.030458631098995857,-0.024466908150991187,-0.01567764821675021,-0.005419417377620722,0.00548050861780331,0.01290193387582774,0.006349024391568351,-0.026466398230195087,-0.08726993877748863,-0.15449457637866368,-0.179878150215066,-0.10384498038221125,0.11040680248952829,0.4415823832319417,0.7980203099124086,1.0437577046004165,1.0583984251992795,0.8012019853672171,0.33884030123262804,-0.18369734950257616,-0.6119333391871581,-0.8492056651326256,-0.8860312950444454,-0.7812686652511707,-0.6150756013242857,-0.44790331815707735,-0.3068384840624797,-0.19556418655801708,-0.11056178275282637,-0.04968658524572778,-0.011483316215126754,0.008049145505024356,0.015924935496194947,0.01971700824567585,0.02449141735114857,0.031233122865924015,0.03778879556863001,0.04167727546660476,0.042107434731985395,0.03950461773678533,0.03449544630042976,0.027901312938315565,0.020745102458050984,0.013968131874360662,0.00806815249646628,0.002582148111040128,-0.0037286814308484725,-0.011871175892124566,-0.021859594785073596,-0.032342088323543905,-0.04095376846058056,-0.04565846276813954,-0.045843055767798555,-0.042694782769303975,-0.03888120696094921,-0.03737778162647842,-0.040352831361893306,-0.04842751770663444,-0.06000461800782203,-0.0713468275337916,-0.07786861625708809,-0.07621982364192646,-0.06622419625040508,-0.050844948113609977,-0.03391573272633628,-0.018340694454696594,-0.005967590586077964,0.002612430858486354,0.009241516749288,0.01850291319176602,0.03529781585707881,0.06100163105582243,0.09164821551735063,0.1205550457717514,0.143423561261706,0.1610188559430759,0.17742829836590462,0.19619091301280026,0.21807175136605175,0.24171510507872054,0.26510838675338544,0.2863647919306784,0.30370669897992847,0.31471398428103625,0.3160764667225151,0.30507182718616455,0.2814261026016704,0.24729165613105153,0.20577052860512263,0.16012764499724325,0.11342939174419943,0.06757538884345425,0.023286425048993704,-0.01859187652768019,-0.056748960319753544,-0.09037756004441652,-0.11952047194351895,-0.14429439736363592,-0.16442781757171102,-0.17954789907205665,-0.189410571933729,-0.1940279874435773,-0.19406868686492584,-0.19115514725782018,-0.18720466542547484,-0.183000674737901,-0.17760542422545522,-0.16961453298260448,-0.158924934268566,-0.14684094541386405,-0.13464371359730246,-0.12272423168958473,-0.11123941558687542,-0.10091467800408258,-0.09231704421354452,-0.08479487535900408,-0.07692696118328345,-0.06752569875862859,-0.056378209249545536,-0.04484669962007612,-0.03546959001808238,-0.030255491344719453,-0.02894719072215021,-0.028943188190652735,-0.02685738733072838,-0.02014794314546837,-0.008496540806942721,0.0054890046740254,0
-0.022968257994150074,-0.027451243920723765,-0.028655350188806057,-0.025825827225476137,-0.020312021771481337,-0.015388241607286997,-0.01367640894526691,-0.014255371995060195,-0.013014529249399168,-0.006365612836252787,0.005749368030421767,0.019611949584733016,0.02939208445090673,0.030961468721634668,0.025560984596478237,0.018827038217020295,0.016274911651014596,0.01971956127858999,0.026679118930276857,0.03296701173247357,0.03605774273096467,0.035697628479715936,0.0322313716429352,0.02553364366665514,0.01571921476763075,0.004507849200247949,-0.005043391260892281,-0.010449071955989164,-0.011131399573766708,-0.008737767797098351,-0.006529674754293415,-0.0073064696427649805,-0.011396656181299182,-0.016956994945571395,-0.021675531645593403,-0.023406993710821007,-0.020339851605109087,-0.012074269242851751,-0.00033379021273658794,0.010826717551075775,0.01433038038395018,0.0008891801526887469,-0.03588500251900309,-0.09055611564331827,-0.13776499257442118,-0.13266102829688067,-0.026681098266392655,0.20295711429184535,0.524275008714216,0.8430922354008428,1.031990459515559,0.9889729706984269,0.6935281734620198,0.22356074578163682,-0.2790264843628449,-0.6743031387977759,-0.8832937137713646,-0.9071570456709722,-0.8029659253864445,-0.6408605155388605,-0.4719013342586341,-0.320186658896635,-0.19285434111939315,-0.09252055083515699,-0.02197574481635313,0.018635446209671974,0.03512074623454174,0.037753447198007384,0.036627367320143656,0.03783746434961454,0.04230035366076847,0.04760138379366286,0.05129831314335564,0.05238540448679457,0.05032143952392699,0.04451982758510138,0.03535652033925883,0.024515453787216264,0.013700444155578997,0.00352766245683242,-0.005828665464205133,-0.013441789263894333,-0.018017417219598784,-0.019362622240104127,-0.018777497011406713,-0.018181829713276962,-0.019314019453805058,-0.023204091267751505,-0.029593844348128968,-0.03672142742374462,-0.04209574978868698,-0.044216393038332726,-0.04377970471576326,-0.04285991083667701,-0.0433158371189796,-0.04630269576239806,-0.05177740476106159,-0.05756741180755542,-0.06011174996674681,-0.05651328276303021,-0.04578795233236855,-0.029076463886130707,-0.009134274988227359,0.010758796411316477,0.028318465393625723,0.04340523593954444,0.05777430822169556,0.07400159011201132,0.0939681860268888,0.11743581169165958,0.1423139653214942,0.16622209877514454,0.18799357304858946,0.20831782281138644,0.22868037396541233,0.24967978455265888,0.27019606113318956,0.2873203685886291,0.2974271226517966,0.297883718981453,0.2878107180580483,0.26779004948128227,0.23925243764341153,0.20424009078182026,0.1648852420555389,0.12227599299245143,0.07701359247665283,0.030986441760568653,-0.012772555265780652,-0.051618353114260225,-0.08447167861049291,-0.11221173437549004,-0.13666573112576572,-0.1589935661158028,-0.17891693970685696,-0.19484545215853383,-0.20480244668102135,-0.20780120537249192,-0.20442025675689532,-0.19612914335389775,-0.1842980726130586,-0.16971460422100165,-0.15301017781673248,-0.1358124869290093,-0.12133890943782046,-0.11312932086889689,-0.11213502190317683,-0.11476183525195792,-0.11463228612119956,-0.10697178149185348,-0.09153483489707238,-0.07206166310378312,-0.05383843728202954,-0.041025589122822906,-0.03461342715954614,-0.03252585738150344,-0.031615548488994866,-0.029118706548701256,-0.023058521949809143,-0.0126858519027793,0.0008181091067328942,0.01398718000650553,0
-0.004535932990827223,-0.004837006356291765,-0.00977619682337269,-0.01928932793866754,-0.030239238216647743,-0.037518455652051474,-0.03644192507157521,-0.025057972341571092,-0.005425215124509951,0.016904569868366356,0.03497987728410737,0.04333668405250812,0.04079729108854789,0.03143180701667213,0.021971936178291806,0.01746626372228766,0.019154304027216514,0.025196785773996543,0.03235493654769251,0.037726792825601145,0.039881590335000494,0.03833725335427069,0.03233891478658733,0.021171005396002356,0.005888627380170774,-0.009871600324131223,-0.021685138236357027,-0.027119323991498676,-0.02652194707311719,-0.021916914489554337,-0.015729669939480044,-0.009976629785907694,-0.0058565663637726645,-0.0033964583196481515,-0.0016138019691138666,0.0005058051723619227,0.0037394274649841363,0.008677938092244143,0.013669672070730379,0.012547626132362379,-0.003972604967850617,-0.04368154056308164,-0.10599052353332652,-0.17264646830879465,-0.202048149669589,-0.13829115705484818,0.06030336275399972,0.38422816535454424,0.7520458667174504,1.0285685137362226,1.083187450019802,0.8586966692423824,0.4068528210402632,-0.1327256804647816,-0.5978885915659262,-0.8760014878525693,-0.9418900930445245,-0.8452464642021662,-0.6661369148816055,-0.47247597356894133,-0.3021597063996005,-0.16869720956326045,-0.07363048637173263,-0.013588460249445707,0.01817279972473803,0.031066099101466856,0.03481688115870564,0.036637831044880456,0.039702435125558884,0.04333822014431222,0.04506705999276805,0.0433221339526122,0.03833182989790241,0.031314486757708405,0.024148092244699507,0.018928972208972467,0.01635992738533789,0.014967161474065158,0.012476938745010862,0.007727603385714696,0.0011925146919601476,-0.006015962699089569,-0.013215185140774304,-0.020329022925773377,-0.027547225899674295,-0.03492797951195911,-0.042016792758074024,-0.04775827502109347,-0.0509899036062309,-0.05111652318292119,-0.04853759983736394,-0.04475979696926498,-0.04184014933095367,-0.04125524115362757,-0.043057577167963275,-0.04579409955322189,-0.047120642163019755,-0.04472067803611188,-0.03725967665624892,-0.02553650790000779,-0.012616586256248428,-0.001364352376722987,0.008373675478573345,0.019415722475687267,0.03444925278848625,0.05396897436740491,0.07645380078378516,0.09978193064446962,0.12227277063374317,0.1431895198415608,0.16292210781960192,0.18234762181643238,0.20145216680588063,0.21887416207358185,0.233429186217357,0.24554925381423326,0.25635830762361217,0.2657193603592821,0.2716329699095503,0.27082355938287683,0.2600567718822548,0.23801095646916148,0.20577673076844286,0.16551305537376138,0.11949796324822302,0.07109947586690067,0.02572936915768584,-0.01147120697713238,-0.0394866069390873,-0.0623371117283246,-0.0862308656824323,-0.11521090907322648,-0.1481755423444877,-0.179127385619922,-0.20076363361043503,-0.2092232217132903,-0.20609183020668076,-0.1962847378385481,-0.18425247119339444,-0.17191217401828018,-0.15946156198843603,-0.14704587629097995,-0.13562012716071808,-0.12688079164318541,-0.1218333884514936,-0.11890877394508165,-0.11422594153740363,-0.10432683353032882,-0.08861493557410943,-0.06938588304794585,-0.05044935754708113,-0.036204922599160465,-0.03044900998838302,-0.034010257710972845,-0.04320149439383893,-0.051013558248820826,-0.05071979943773537,-0.03973656119072326,-0.020806926389634894,0.0001360798539241162,0.017488619283544584,0.028603211783301094,0
-0.00908013290741782,-0.009997173084011579,-0.012450199783301131,-0.01759466886522424,-0.02554521938335172,-0.033992008736545024,-0.03843416964061001,-0.03455383801306471,-0.020869265363983466,0.00030388347664228653,0.023218567821954632,0.04026454899692149,0.045416061196840114,0.038112437216754266,0.024490815997669734,0.013940379791676106,0.01285009253972036,0.02085751560659694,0.032437569434890054,0.04157631398630526,0.045205250740966485,0.04333467501436225,0.03731155026833205,0.028201670581980684,0.016440225382449748,0.002907232016127305,-0.010028136224477745,-0.019148381707657834,-0.02235147739922929,-0.01993025855065621,-0.0141372449384186,-0.008077236166365371,-0.004499413659769034,-0.004251928194190048,-0.005677901679369827,-0.00577874407794768,-0.0020304361439394264,0.0062938551073431805,0.01763671083442012,0.027819379853765244,0.029766661782140727,0.015001537035141455,-0.022129071021023367,-0.07782119319867577,-0.1309324081727199,-0.13956792574301896,-0.05246132569680523,0.16123013956365995,0.4778591790581612,0.8066316113144663,1.0160086720786712,0.9933022373203682,0.7064099016475729,0.22821218373352514,-0.2946690208371833,-0.7108461151436387,-0.9301250295409597,-0.9494454473432196,-0.8298240636879645,-0.6486639165153323,-0.46292842039159204,-0.30020674891756144,-0.16923431932685068,-0.07256813469628165,-0.010851102679342695,0.019985209979802493,0.03000629131511763,0.03118669367081689,0.03211976483212855,0.035973573152466,0.04193645180756965,0.047811152262554425,0.051672385346084884,0.052391040125339725,0.04968112776584606,0.04404481311451888,0.03671418657321254,0.02939136058669123,0.023620172561825335,0.019770328087895483,0.016332833409321484,0.01082163771760357,0.0017947683788242935,-0.010203047341197032,-0.022904803496229975,-0.03278567566031409,-0.03689540451857557,-0.03570421462096826,-0.03342126413013847,-0.03454975353083237,-0.04019471231632988,-0.047944747837881045,-0.05455537579496214,-0.058199975153969664,-0.05896771912988499,-0.05798283961742916,-0.05593570042542057,-0.052294697090233364,-0.04589838318424483,-0.03603146877501532,-0.023081460249475702,-0.008640402392302864,0.005274458661952848,0.01767452928372434,0.02942310956883712,0.04265939550386972,0.05963792806594844,0.08185847664824186,0.10930290984539016,0.13970768587548582,0.16877248613580728,0.1923321705216438,0.20906480969691085,0.22093124944782594,0.23151871365483467,0.24397311907150837,0.25946567889957095,0.2767404389744241,0.2922683797396498,0.30083112037686827,0.2971183180096815,0.27801913813488177,0.2441200071963327,0.1992187684050935,0.14839391478036315,0.09606129870655011,0.04536981586640527,-0.001173143676094307,-0.04182226932720512,-0.07648730421953243,-0.10624317190245958,-0.13173232058842244,-0.15264130404455997,-0.1683766564557365,-0.17875036052295934,-0.18447309422132593,-0.18730877029743698,-0.18912888846886347,-0.19014546041401692,-0.18840485067339974,-0.18190424950835526,-0.17117839671953503,-0.15921820497169648,-0.14902448229956436,-0.14129094348856774,-0.13401765923946996,-0.12441812860261815,-0.11124448557199339,-0.09546243567294023,-0.07961009770972531,-0.066525618312829,-0.05773724810333923,-0.05272015737879633,-0.04936304279968998,-0.044954334788113885,-0.037527836429169424,-0.026968196904433164,-0.014803675010610768,-0.0030997533923363095,0.006291689955694263,0.012198939496444409,0.014870906697861345,0
0.020024285442154025,0.0125863456589725,0.0021306088841818688,-0.009594862778580246,-0.02079694203113498,-0.029339084491438037,-0.03203045418549135,-0.02585597987151723,-0.01045660489921178,0.010569909118342484,0.030446850619754343,0.04209441362600762,0.04245780327264454,0.034918161960281274,0.02698949825133477,0.025409184853185565,0.03191865677428055,0.04199668311573899,0.04816815749324757,0.04551294758338888,0.03479996799714224,0.02123211027262614,0.009990558771729264,0.002687664412573702,-0.002176620030412064,-0.006458517495731694,-0.01054550516053698,-0.0134931436494062,-0.014304532031114611,-0.012919887808472443,-0.01043065370080638,-0.00889671471977866,-0.01016911039890198,-0.014183312994925434,-0.01867404214544908,-0.020239398659689323,-0.01574648929916478,-0.004089577854473543,0.011514043609062535,0.02197956325030499,0.014144246069912937,-0.023186174155749386,-0.0896270453426778,-0.16300459307169277,-0.19631781921449784,-0.1308948603953688,0.07286877274841785,0.40024856795988917,0.7654974770818378,1.0328189614268626,1.074615905018707,0.8384915638914582,0.3809153953770088,-0.1555897306015869,-0.6091037071856555,-0.8705487566085321,-0.9206055913675342,-0.814703245182929,-0.6358917969433407,-0.45160285310247456,-0.296391530239761,-0.1785815557142411,-0.094971204362005,-0.04033586324514206,-0.009009101837252186,0.006284330585355373,0.0134526572999467,0.018545268701952472,0.024140354726257876,0.029550508748593107,0.03292909404199553,0.033532301528810975,0.032113725696555684,0.029796998807134305,0.027068488960987885,0.023765647522137005,0.01982884460440223,0.01576549301965634,0.011934529605930652,0.007719074411857433,0.0020371340548827055,-0.005326674719976686,-0.013283344730524097,-0.02049003843511151,-0.02638067000343965,-0.03112172764769213,-0.034920095559937483,-0.037653410893174394,-0.03935096188011976,-0.04058972122829917,-0.0422288868454846,-0.04477873429894277,-0.04764295654610568,-0.04921129387835964,-0.048116476788308965,-0.044267490003938106,-0.038635668129478724,-0.03212217144941308,-0.02465223649528075,-0.01549947112118833,-0.004521755754613919,0.007512648840828353,0.02022838933011748,0.034357783285121686,0.05069708585180313,0.06939678190322435,0.0906576908760678,0.11477199089959328,0.14063197502835714,0.16551485722691345,0.18724912209256328,0.20569406856704106,0.2218703857264286,0.2364922477431076,0.24940145117789347,0.25983398267604874,0.26692099860734075,0.269538970701928,0.26554975911150863,0.25212470164434564,0.22775578373818953,0.19370061689942739,0.15309706320440877,0.10917479697121074,0.06443985590614355,0.020908017442927807,-0.01956084347248189,-0.05558034535364964,-0.08642623646695274,-0.1117043228371,-0.13166613433619,-0.1475185858397206,-0.16050894072664432,-0.17096000716482593,-0.17842269413146936,-0.182315485195016,-0.18212992381563511,-0.17752643037442017,-0.16864615511858833,-0.15642499143595995,-0.14291019878455236,-0.13074123230786755,-0.1215868133648337,-0.11508191779972136,-0.109313654809419,-0.10244363622025611,-0.0937645548687616,-0.08352768409041082,-0.07296524504370454,-0.06407021551466827,-0.05782313438556634,-0.0531675588425564,-0.04832661227966976,-0.04212817637552051,-0.034214838956118904,-0.024831953838097946,-0.014508519879250965,-0.0040809167149734454,0.005370608077931369,0.013006210067572351,0.018356255044903125,0.021362768982705182,0
0.005637051973399324,0.00828239860270319,0.007285097730831563,0.0008713771475342296,-0.009621759953198295,-0.019544440723794097,-0.022690246489916372,-0.014629359206258902,0.004533386278474324,0.029877994491861543,0.05333252646376281,0.06644394087526664,0.06437670153967293,0.049448167394560275,0.030536554228442203,0.017707578842087873,0.0161789080271381,0.024050343125384274,0.03483779708767497,0.04199776279176493,0.041881186377167555,0.03450939296759169,0.022799901769332005,0.010580726897520046,0.0008849485606730462,-0.004814138663974896,-0.007060216798469512,-0.007940703888312127,-0.009306995785923115,-0.01131818687121146,-0.012967468732201833,-0.013718496007445322,-0.014000532687785732,-0.014390814422025902,-0.014749792033376983,-0.013860472557003959,-0.009721013318560642,-0.0006788750097797844,0.012562352648774044,0.02511652806461564,0.028006175396494044,0.01109593413922395,-0.030684647807945237,-0.08869241685461764,-0.1334716405514579,-0.1165485080458497,0.010809927258348234,0.2638865496992675,0.5951683899826252,0.894196655018972,1.0281486651755731,0.9078286996249916,0.5397196446866395,0.029187893545226412,-0.4683683424709893,-0.8196043848716387,-0.9666230420886224,-0.9334778591135929,-0.7906525333127516,-0.6086895024318144,-0.4313577972195315,-0.27617331854048655,-0.14872836997564842,-0.05327485346532303,0.007394693598291507,0.03664162793892851,0.044595305577086776,0.04385970592239782,0.04411078126459437,0.0485884138818572,0.05466920370362406,0.05811607780188307,0.05697766760489352,0.05218816947174968,0.04600892876019003,0.04016400211188448,0.03465932645004091,0.02839548716925978,0.020931623221162463,0.013227259465823538,0.006809005203584583,0.002328373566832192,-0.0012636822020742015,-0.005966735823927942,-0.012977192188064915,-0.02160703412420701,-0.029580628236743758,-0.034426495591377705,-0.03555284546551238,-0.03509887459533973,-0.03595395812120135,-0.03916486222776593,-0.043422725707519455,-0.046410810203002924,-0.04652651382988539,-0.04373154079194517,-0.03911804425509179,-0.03368359835824493,-0.027360973492681483,-0.01921566651148416,-0.008626099155117887,0.00395720637770474,0.017599246715777415,0.031923581686785246,0.04749194428272827,0.06525388559149534,0.08531587906801788,0.10643994197117902,0.12722421802095685,0.14713415346551698,0.1659969320295034,0.1834643462596658,0.1993636399130015,0.2140791589294887,0.22828328007116303,0.24217051234038908,0.2549435316941803,0.2647723630312225,0.26901933351917284,0.2649236779730221,0.25073663449459344,0.22646397479844013,0.1936646906669405,0.15498120669855947,0.11330829375550686,0.0706450327502901,0.02816999179228067,-0.012890091796562253,-0.051111154190678576,-0.08517018312537553,-0.11414064331235757,-0.13769083790068776,-0.15605498041498256,-0.16994227651879348,-0.18018313431311295,-0.18693174862312856,-0.18959172083029827,-0.18790578267799318,-0.18250217428925125,-0.17479682032638605,-0.1669442187030169,-0.16061185402749206,-0.15552846729770176,-0.14983770735638166,-0.14133366662567723,-0.12876128947172108,-0.11287574487188783,-0.09613116935874418,-0.08114765929349943,-0.06922186683092017,-0.059807893628769135,-0.05145599657673803,-0.04353643527983875,-0.03661926825779413,-0.031093595732429362,-0.026197774030334024,-0.02042100526985203,-0.012524191653384916,-0.002461963941406183,0.008341627309682981,0.017634992876545942,0.023529147436442632,0
-0.014694323046205864,-0.017185717453418348,-0.01913649974418905,-0.020521873835763475,-0.02178451987161724,-0.022808247274415112,-0.02216336383190515,-0.017684453019650135,-0.00805712746580112,0.005862305129624375,0.020846631046960655,0.032344835196320205,0.03689165280853345,0.034590438648398315,0.028971796211338698,0.024216922130819704,0.022674192344761063,0.02415540506213777,0.026439228405116973,0.026726514161659883,0.023549390358282993,0.01753542925628161,0.010567139630886471,0.004288737582513203,-0.0009065248879425165,-0.0054268129584452,-0.00923193043970632,-0.011567580675155321,-0.012053391928630027,-0.011584549924538922,-0.01160809579920794,-0.012646015228164768,-0.013910802455362095,-0.014091072263994853,-0.012179770938566675,-0.007541217554898005,0.00018206710991294913,0.010127553638446373,0.01922934346019071,0.022234197570935508,0.01220082207154755,-0.01690341642752862,-0.06344246316320491,-0.10992473663210837,-0.11992403373488504,-0.0469514004162316,0.14127442579391417,0.43177401895330847,0.7503118235741042,0.9789099707657708,1.005480113411823,0.7816855432041837,0.3545491724121409,-0.15013458358898174,-0.585640041097407,-0.8502933721389088,-0.9223741371218235,-0.8474747704879126,-0.6963520209725322,-0.5267238216713381,-0.3695395402212207,-0.2360354545170249,-0.12966272767794168,-0.052037945162504665,-0.0023530405227207736,0.02433771085623379,0.03592154121639199,0.040311628063350056,0.04320034567273292,0.047054514924768726,0.051694254837377815,0.055792012723098,0.057919382709676615,0.05720970806911628,0.05380371493563593,0.04854289836643045,0.04209185575658535,0.03469835825452129,0.026843377283550834,0.01915509243737355,0.011455191923582731,0.003116508326300815,-0.0053137903429774525,-0.012050966468515997,-0.015991061843196534,-0.017729107101639822,-0.018758273684747327,-0.020784238457240253,-0.025430373422554678,-0.03327586152573441,-0.04311627593397234,-0.0522940444671831,-0.05762275716439506,-0.05717031592436879,-0.05203121061391848,-0.04561950421859627,-0.04093250618676016,-0.038795873242062066,-0.03811613422321788,-0.0368986429900793,-0.033086717760701975,-0.025496341906800845,-0.014596612917735905,-0.00158411221258513,0.013516955528307976,0.03150655752427783,0.05190948086812567,0.07283748677038535,0.09278272388559997,0.11135706489751562,0.12863596065323107,0.14506775300042768,0.16194178534172127,0.18060178762619755,0.20068252058593264,0.21971552443299985,0.2346458437510835,0.24352089517353023,0.2464007537715367,0.24511705821109497,0.2414911089451333,0.2355034124056004,0.2249763488595618,0.20659106124931997,0.17810339612755174,0.1406169199543663,0.09839915021058268,0.056074768910912835,0.01588239351602607,-0.022479018220041135,-0.059466463831488445,-0.09360140199605424,-0.12190077380647593,-0.1418019848053968,-0.15282931065121405,-0.15739741279029534,-0.15968353464974072,-0.16298080017299316,-0.16834173960694537,-0.1747337330335273,-0.17934831850547833,-0.17902679592263576,-0.17237042478244308,-0.16034390817058308,-0.14556156676134344,-0.13106440091555568,-0.11873536725349206,-0.1087443159976532,-0.1006249681310756,-0.09396680826347494,-0.08770382572927278,-0.08005963076356439,-0.06999728377588867,-0.05788571683996626,-0.04481510582462034,-0.03227810672965282,-0.0217631229686954,-0.01373899343421392,-0.007774120127516611,-0.0033535673885976766,0.00039992468476874113,0.004931837724818547,0
-0.025666796233062443,-0.02379165897373635,-0.021209146923802116,-0.020647606941747235,-0.023670844948795577,-0.02940844489589485,-0.03462749521599158,-0.03497117868190765,-0.02674104361204763,-0.009363601293485176,0.013223929259794903,0.03445339368492545,0.048550443724796534,0.05282971421297475,0.0487392265872634,0.04136813239600188,0.03656293727471126,0.037092316349234544,0.04067668333369918,0.041620523401896876,0.03544572494873527,0.02254582213408056,0.00750431032623167,-0.004233317950549979,-0.00950897230219328,-0.009269380644514585,-0.00763212155613393,-0.008184767143790829,-0.011029065735161086,-0.013603897127470907,-0.013643429402433975,-0.01104792077401105,-0.007759714799244694,-0.005962800829550988,-0.005991230546180045,-0.006295351620742363,-0.004943437191636724,-0.0004470631731192348,0.007312017694969656,0.015109302188727188,0.015439306646948163,-0.00096811608184054,-0.038660623572879534,-0.08859999267026854,-0.12151394372960625,-0.09147582744192571,0.04459257519315328,0.2966182599224194,0.6169453724603897,0.901712471965206,1.0275315307412543,0.910800686880735,0.5565379532879533,0.06331492127942123,-0.42206882984615035,-0.7721979562770833,-0.9290116658177165,-0.9116896816783953,-0.7854823778577641,-0.617596834719957,-0.4500534340727521,-0.29971132067784684,-0.17234082053375893,-0.07303678068647125,-0.006426792556886673,0.02848796453959982,0.040698054996833356,0.04323360932692476,0.04614214767795322,0.05209327869043033,0.057698331380852556,0.058677111814664576,0.054035925558455225,0.04656991948238996,0.04034943761583244,0.03757627215311332,0.03731406257557006,0.03648682768842214,0.03209236450784898,0.02321037823138194,0.011497462814388315,0.0001889547586048819,-0.007907901185428194,-0.012383484509614753,-0.015428169317529068,-0.020142421758379367,-0.028235745062292945,-0.03859498913106941,-0.04800161586280096,-0.053433064379679054,-0.05401228134777843,-0.051262796053058834,-0.04775764364415989,-0.0456639450962149,-0.046059885582981706,-0.048657014401593764,-0.051901474839918624,-0.05375156308717268,-0.05271750905755085,-0.048234793545794206,-0.04031336872978191,-0.029229202520320675,-0.015520860432475749,0.00024745729449707687,0.018146449732457645,0.03866570731251687,0.061289696357717485,0.08429054592812811,0.10637938543302305,0.12764603592203394,0.14884466636068144,0.17076170818668457,0.19417002880462333,0.21909244872386804,0.24394736482412188,0.2660303891183624,0.28284093588872194,0.2931244724828525,0.29699385785978116,0.29499222058488517,0.28693236553117113,0.2719087553139127,0.24920181869311694,0.21842439572808525,0.17937880750575366,0.13290265049982802,0.08147953177832337,0.02846308128667279,-0.022794903059737602,-0.06895116745187133,-0.10689125120772136,-0.13498604782334656,-0.15410768621890417,-0.16696743214442542,-0.17619254374433496,-0.18301624333971855,-0.18789249258089757,-0.19137577880267392,-0.1935849112728665,-0.19359221325341094,-0.18986439378376208,-0.18136045069651519,-0.16863468251942898,-0.15396366254764723,-0.14000566531717945,-0.1283804988095974,-0.11951187241792793,-0.11277359821260137,-0.10661321913762475,-0.09960688065297149,-0.0912909769150271,-0.08164733677248293,-0.07063297025879114,-0.05833177309863959,-0.04510419616388523,-0.03193081235959159,-0.020447934688072465,-0.011991739616073825,-0.006553612494402353,-0.002639218582938717,0.001817718695324353,0.00811246920256746,0
-0.004074736296484381,-0.003627382864577533,-0.0025882879819021597,-0.0032397125698245656,-0.008090415039711018,-0.01742678045263241,-0.027884057617462203,-0.03370690312295811,-0.02975123455781342,-0.014215336167465275,0.009555849532592468,0.03329710764635682,0.04786239921048722,0.04901696155723552,0.039794088602772525,0.02764867593317432,0.019219222402249277,0.016999248925506524,0.019841072066039588,0.02507459112841483,0.03018670651884033,0.03354268368237143,0.03395203763290476,0.030281226557110373,0.022024929874310855,0.01054168653460466,-0.0006562173106009995,-0.008161432113864282,-0.01111843775429943,-0.011102098450127756,-0.010499860666906034,-0.01118913466045757,-0.014099324959679527,-0.01905317446803921,-0.024532219027918224,-0.027942064672569152,-0.026061200007475745,-0.01593820552018385,0.002429192270911905,0.022819496888087168,0.032692071750789885,0.018125795814089157,-0.028252168218630865,-0.09897194132067678,-0.16529046091430594,-0.1782077285711942,-0.08413116801809659,0.1449873327213622,0.48074664342148626,0.828717903841903,1.0555965303475963,1.047836846702637,0.7722112220879163,0.2995353825465935,-0.22614730751893466,-0.6546115782290676,-0.8934669166053296,-0.9344888197217563,-0.8334397704508735,-0.6653819488104942,-0.48810506992155966,-0.33072608458055497,-0.20201578599200626,-0.10316227480002797,-0.03423955207195202,0.006568811118622751,0.025338337192211922,0.03142788446496153,0.03374341848873798,0.03768461466434804,0.04415946914094631,0.05096894967671122,0.05553883010418861,0.05599706827091921,0.0511904998935232,0.04182859339706449,0.03086137750074345,0.021516557788887482,0.014996298432191524,0.010276597266295425,0.005825871641365622,0.000985308596900162,-0.003994574446195696,-0.008638493947800023,-0.013221018634166215,-0.019127588393403224,-0.027653212985003173,-0.03880337590971042,-0.05129072034620135,-0.06261161804759972,-0.06966887308058939,-0.07080140265090304,-0.06738515450573533,-0.06278313963819179,-0.05952231599960367,-0.05788521148863964,-0.056810582739847994,-0.05498476251313936,-0.051028443183934784,-0.043678151194998585,-0.03246032962395103,-0.018070299574930466,-0.0017078800176250509,0.015559209934196122,0.032700053594294384,0.04936415966910599,0.0667745591124516,0.08693087313734112,0.11109142181913721,0.13904910296022582,0.16897180030843584,0.197846933540832,0.22306333841857504,0.24426539545448303,0.2630876035584679,0.2806223314599394,0.29585846893516526,0.3065598549680931,0.31064146749836163,0.30656127544017775,0.293161794456738,0.2696267366402656,0.2359494417366167,0.19365703804861462,0.14538481292601035,0.09373740704368322,0.041412810295987146,-0.008400622731299087,-0.052820672137476966,-0.09010831728410165,-0.11986920574201852,-0.1428212804271941,-0.1601147025061043,-0.17290280475360176,-0.18236384175033213,-0.18933254727502163,-0.19363193088180775,-0.19412761029626974,-0.18985162504778733,-0.18137113276227035,-0.17100684738272592,-0.16130063987418403,-0.1532868800430167,-0.14648444787303533,-0.1399728028867589,-0.13314919716050572,-0.12586960293334729,-0.11784074542889218,-0.10824717340346139,-0.09657027866632781,-0.08298183636252678,-0.06771582104395416,-0.05142189590394364,-0.036219519168229644,-0.025129898692192343,-0.02005089374410666,-0.02014536816398782,-0.021860936260031626,-0.020917054655493348,-0.014774059525385512,-0.0037369796613424718,0.009417979578422445,0
