-0.008504550937971716,-0.0016878701879656148,0.0005546057643968745,-0.003323779082504881,-0.012569295064513387,-0.024528670605296555,-0.03538475736391745,-0.04123361743132304,-0.039015639121277805,-0.027132527115379307,-0.006592031539088282,0.017489693082741384,0.03695744035466229,0.04495847595114034,0.03992241999261263,0.026348252018381604,0.012079512135080323,0.003813209938761624,0.004144392529732996,0.011544302176696327,0.022014240589650992,0.031030471108945162,0.03513750092382783,0.03280552335196668,0.02424227230406825,0.01090385333656948,-0.004555827392612469,-0.01874300911668784,-0.0287189065433475,-0.033105482506541224,-0.032643500945035896,-0.029804406474136947,-0.027151761830686412,-0.02577250784379096,-0.025382521557203695,-0.025169819709006898,-0.02383990703723475,-0.019668267727043793,-0.012176377188809717,-0.00485740329245379,-0.00607588374577334,-0.025809390176334594,-0.06865021581127438,-0.12558119184067357,-0.1677499094666796,-0.14761928510791678,-0.015256554874903145,0.24996845401390944,0.6087877292988658,0.9569925861688867,1.159487348190539,1.1122745752197707,0.7983487014831762,0.3024661611142067,-0.22621176808702118,-0.6426953710126222,-0.8663408936941805,-0.8997371687917081,-0.8027466309211192,-0.6475979516878321,-0.4861427526491289,-0.3425727394299257,-0.22369743013502413,-0.13086071513185843,-0.06448647914489611,-0.022787532894141947,-0.00029765950749930867,0.010956967010931969,0.018440653013514607,0.026078599530121496,0.03344588036070386,0.03820497794538528,0.039203754371584444,0.03702852272029232,0.03285986996448921,0.02808886944480642,0.024225591172654007,0.021936469292640037,0.020410411464066677,0.018268283799157767,0.014839463405708814,0.010130682962572003,0.00419798068470589,-0.002788988077215124,-0.010423139356498445,-0.01825175036087475,-0.02565811142831297,-0.031761451693516726,-0.035920351963900574,-0.03813721348941731,-0.03888844715114892,-0.039032948185969675,-0.03955610029384964,-0.040965688504342554,-0.04338003826476123,-0.04680014697854703,-0.05046633937785583,-0.05249455298484754,-0.05091659024576538,-0.04493835989438996,-0.03512115982781714,-0.02303923569631833,-0.01082967170471633,2.377573894640512e-05,0.009841592443804722,0.020484697214599952,0.03400957823074815,0.051283380920124064,0.07182794926890644,0.09467750878491799,0.11854544894720244,0.14173472939710263,0.1630595923247345,0.18248870403349504,0.20018452009704646,0.2156147638750019,0.22799226936141737,0.23685932693582787,0.2424093004404957,0.24539456751074554,0.24583673515234977,0.24174281264282566,0.22974221049805155,0.20712348158118246,0.17339368275249673,0.13047537856809718,0.08210114125203666,0.03290859157742304,-0.012910239312863774,-0.052497002947759996,-0.08414435599664405,-0.10752624591440983,-0.12443635363068134,-0.13772295134330895,-0.14875562041056958,-0.15678846773808203,-0.1607930233580923,-0.16092017375199968,-0.15817971678655177,-0.15358022690650777,-0.14765471292206717,-0.14033049301923525,-0.13150593212383496,-0.12186409636680148,-0.11270338220170655,-0.10491993480816718,-0.09824404838596429,-0.09169505045373136,-0.08470511307817677,-0.07723187749930721,-0.06919886604652811,-0.06051995661782288,-0.05130307412891498,-0.04215014804284106,-0.03454261406588453,-0.029840467362326574,-0.027604682597839193,-0.02597483045789272,-0.023355028816879005,-0.01896293825683235,-0.012735633610365851,-0.0054850250722808976,0
-0.0026617121864799674,-0.0011779611351343932,-0.0028443565866312025,-0.008878115979429783,-0.018590515912474095,-0.029477686013475567,-0.03837031220822484,-0.04188071616547232,-0.03684979126998808,-0.022389889481234156,-0.0018513234603988811,0.018129984897562984,0.030897206769581558,0.032974590949875246,0.02597729263455424,0.0157275572203563,0.008412545924607674,0.007165840435941801,0.01134783036793148,0.01767558741354265,0.022468966373999137,0.02384386017615414,0.021861683581003637,0.017071759049230893,0.009553348708320182,-0.000840207918068011,-0.013441641511290764,-0.025874728046978046,-0.03493722070685973,-0.03914260392298207,-0.039689933294402846,-0.0386512281935366,-0.03753441244614331,-0.037463804234894926,-0.03871274650774107,-0.039763096771057965,-0.038060786016404335,-0.032085072966640045,-0.023547928417708086,-0.01922187133857634,-0.030453431443393943,-0.06819106622412317,-0.1339461246073858,-0.20936279071804478,-0.25019361211065816,-0.19477858236454998,0.007257237179549358,0.3564069481195703,0.778499924897038,1.1360495406863007,1.2813062405119984,1.1292396602956072,0.7070572172564911,0.1458696216886195,-0.3814796615408861,-0.7385193260943357,-0.8755038370225617,-0.8284629188904377,-0.6774709430739209,-0.4987502986014097,-0.33892911633632594,-0.21511224801149142,-0.12756794442040936,-0.07112183866011962,-0.03966503350643991,-0.02602778188620277,-0.02169577601072122,-0.01861706508115274,-0.012044748863516246,-0.0018564044607882572,0.008895274219224373,0.016846353163865145,0.02034015694446644,0.019852781243689197,0.017101375828857623,0.01361057027723478,0.010109610408769839,0.00698181009905042,0.004566519973655437,0.0028737999166333593,0.0015460612099869077,0.00013667954222206131,-0.002004654841735747,-0.005824467811605675,-0.011899159661540964,-0.01968455271783233,-0.027561757270880477,-0.033464556362378994,-0.035986535331592934,-0.03555074037476566,-0.03403183592445935,-0.033018302421467915,-0.033123812483675893,-0.03447150215800149,-0.03669634803549764,-0.03871927379841816,-0.03912022560495856,-0.03689905798392621,-0.032023128832325325,-0.025213108710526823,-0.017214673593331904,-0.00867686213609812,-0.0004952470417480363,0.006931659076067224,0.014686504717052008,0.02458651999010728,0.03785136573201192,0.054794348436197605,0.07489531376056849,0.09666656342393935,0.11785272860163468,0.13619922140274926,0.15062473071250415,0.16215687293342965,0.1727849197709917,0.18284019225395864,0.19069365360675897,0.19505644940083877,0.19632868734862835,0.19551650056724793,0.19229270096027332,0.1842537663680871,0.16822731791477144,0.14252326394965176,0.10819919462614604,0.0686315038618304,0.028132395164522955,-0.00936561939586028,-0.04116554114511791,-0.06621750734018392,-0.08507750835197186,-0.09921222471539917,-0.11007944362436442,-0.11868982878109505,-0.12530128152182968,-0.12950730347576977,-0.1307684459115802,-0.1284969829513699,-0.12258500623307551,-0.11431456257508665,-0.10581033368836976,-0.09863109872611746,-0.0932142935436283,-0.08929931252635276,-0.08614489271260733,-0.08225504290708323,-0.07622544108157292,-0.06822528065368941,-0.05969499913494042,-0.05185986041923661,-0.044942725273060105,-0.03847396170483597,-0.03248605889232711,-0.027971612224559655,-0.02549832707498894,-0.023967682047620023,-0.02153634556108657,-0.017410016379189912,-0.01191560624026399,-0.005580717771820306,0.0007314981515453289,0.005703960614918291,0
-0.005110450900513982,-0.004713969766121342,-0.006602395186757074,-0.011742207442476145,-0.020225951726984506,-0.030618805823317642,-0.03952115660434176,-0.04271749997648148,-0.037152762543367725,-0.022371259777107258,-0.0013041957856328784,0.020249805180965894,0.03567220744378763,0.04026984111220963,0.033953527728773046,0.021970515274942648,0.011956160717288142,0.00907394577671252,0.013324503416621314,0.020643017280998405,0.026004952218071035,0.026150797253908366,0.020573463526792075,0.01101926868392294,0.00043122077933733084,-0.00832322767043938,-0.01382237645695149,-0.01667825402284122,-0.018467853979425426,-0.020228816017531293,-0.022163441718891976,-0.024156845554109088,-0.026154291968193757,-0.028145036417081624,-0.029853675584216293,-0.030503727498480956,-0.028865548098565934,-0.023804692556816547,-0.016255200011007477,-0.011726793027011939,-0.019871117942553272,-0.04947680615653215,-0.1001749362526565,-0.15377269703629678,-0.17064241144489814,-0.09874988556210383,0.101183689160048,0.4234440616166146,0.797110759679039,1.0971371432376873,1.1933301522838582,1.01618648270458,0.598539577802681,0.0642188528975733,-0.4300237942522284,-0.7641721825693533,-0.8972733527458354,-0.8635911038855759,-0.733999329670483,-0.5735141545189361,-0.4201834746381369,-0.2881385819244908,-0.1807974927734144,-0.10009111131087645,-0.04691087617594664,-0.01752582171057866,-0.003463423456653774,0.004247807147833297,0.011446742082948089,0.02024176715533546,0.030000674411390954,0.03884985584207914,0.045051347994743494,0.047290682914555196,0.04446298997037749,0.036447556672714834,0.025344801546052793,0.01496434515789741,0.00823975432676842,0.0053763524779033515,0.004621110262302578,0.003952127151592603,0.0016511720354668493,-0.0034909099009291598,-0.011159170493171172,-0.019353141486779614,-0.026266558290219517,-0.031743312553295995,-0.03652230323020331,-0.04087143618674064,-0.04443483070086396,-0.04695496824818453,-0.04853958420108976,-0.04954003278461648,-0.05045536816824606,-0.051313347291456826,-0.051370239150362124,-0.049882444515744154,-0.04669621168086639,-0.04212963216627855,-0.0364760474556072,-0.029613922189272286,-0.021127370482807835,-0.01041911587719431,0.0031910675530127048,0.020060764480825242,0.039919158895113785,0.06197610910520188,0.08530380130223825,0.10887081595533771,0.1312382085554353,0.15100661975775248,0.16788196899867064,0.18291853023760002,0.19764169478263932,0.21282804116774146,0.22782805181701166,0.24091412132816986,0.250287407462977,0.254880034274173,0.2539209771738429,0.24597455874033675,0.22930057935844375,0.20290781777348446,0.16687007219084826,0.12265302994855916,0.07393911597856839,0.02601901538196604,-0.016653860843798725,-0.05212360919828092,-0.08074980487195957,-0.10417360931619254,-0.12407738757480828,-0.14100972287357288,-0.15392879360749523,-0.16118051730794114,-0.1620797033902015,-0.15757063413873063,-0.14994074416318898,-0.1419651802591803,-0.13579184666043856,-0.13238131731061525,-0.131176704677641,-0.12986567196109378,-0.12552184166546584,-0.11667687762694358,-0.10427606039037697,-0.09087371227589133,-0.07898934192330084,-0.0698539249683571,-0.06337689842106216,-0.0588578626306716,-0.05526767652629573,-0.05145091757737092,-0.046725452108862295,-0.04106589292139789,-0.03476779962616621,-0.0280093119826996,-0.020816696726752026,-0.013669404579557263,-0.0074585453544525615,-0.002527649157777829,0
-0.0027754069352727384,-0.007447234318404222,-0.011943810471370726,-0.016993721165773544,-0.023129102026136147,-0.02965134498453837,-0.034740762134749525,-0.03619968819988089,-0.03245321623032095,-0.023260402535107937,-0.009908341529887612,0.004925830651730035,0.01759224694635792,0.0245915738259341,0.024627552862319966,0.019962850703438305,0.015113586729529293,0.013664647356290308,0.015971277755307257,0.019513821713930436,0.021417329480771605,0.020873135785426117,0.018878806170452105,0.015940078158134054,0.011302012443378428,0.004267370144445174,-0.004707501719334315,-0.014249239689043753,-0.023084400770791214,-0.03038050208918655,-0.03560440737424866,-0.03893809394760387,-0.04110102461526936,-0.0424575136084614,-0.04275983218021988,-0.04119092936187009,-0.03654654270326376,-0.028204299519503807,-0.01775624669079346,-0.01045956861866441,-0.015213758841764092,-0.04190654189269268,-0.09544080066865418,-0.16686174181871508,-0.22500380168026995,-0.21687933924602792,-0.08571915621915319,0.19519748397182532,0.5896423468291571,0.9894639997078453,1.2466038140016746,1.2398123211661818,0.9393504295882054,0.42777408673689077,-0.13720029248843238,-0.5954447250430802,-0.8509208319806327,-0.8971803230757829,-0.7949795866775315,-0.6256004238558631,-0.4525370141875103,-0.3078366073807818,-0.19888094069131074,-0.1218084913363187,-0.07037782877831797,-0.03839192061998488,-0.019548217655661445,-0.0077918786073053505,0.0012885666484208393,0.009159845131815631,0.014914882251528167,0.01768151414255817,0.01808454536195334,0.017541931060254177,0.01725944389991629,0.01779360843041611,0.018719191436841646,0.018919899323772697,0.01741172077369824,0.013610524015327276,0.007412926008762923,-0.0004831187073840275,-0.00868389837143372,-0.015607770415936665,-0.020048742330672973,-0.021703653423403555,-0.021494032237774637,-0.021256140148220706,-0.02258132671402394,-0.02609377024883055,-0.03184193931596465,-0.03923758068710978,-0.046475253984827096,-0.05104613057676534,-0.051164806571724404,-0.047026264114730744,-0.04081531763014429,-0.03506660897796697,-0.031135216323149806,-0.028816168492822248,-0.02674902221569712,-0.023427077308308814,-0.01781819198602575,-0.00930250613852264,0.002344097632326599,0.016942396899650485,0.03407697901360123,0.053076956062082736,0.07254187575213696,0.09061787632770134,0.10655591756786724,0.12128900099592094,0.13609434695067602,0.15139291846196853,0.16698873572596723,0.18275472077250804,0.19825715759291263,0.21195246373830834,0.2215980049173423,0.22539679232265347,0.2226892607301252,0.2138057895742942,0.1992874255052019,0.17928757850371632,0.1534008733996679,0.12133053054587407,0.08426664958296612,0.044805315426184614,0.005516828985561405,-0.03143975408111154,-0.06398374628611692,-0.09056369898903005,-0.11082063014614427,-0.1252720103370995,-0.13453424281600146,-0.13921058136658784,-0.1401204300722165,-0.13817778994378987,-0.13430614260439655,-0.12957502356622183,-0.12495056500499913,-0.12076647116481001,-0.11651663438043716,-0.11122921621274667,-0.10439093517731099,-0.09650012052310898,-0.08849058712399538,-0.08092644464984709,-0.07390620974210375,-0.06737753581862976,-0.061354228163920596,-0.05589075747424066,-0.05083244755280732,-0.045545150083447325,-0.03920251828602713,-0.0318543225883857,-0.024879800969246225,-0.01968837131538668,-0.01641065864557145,-0.014279369622135687,-0.012498985533769637,-0.010321836211359337,0
-0.0041727020448016384,-0.004906875557723907,-0.008000538042943348,-0.013674854497614122,-0.021591896427991676,-0.030510108336050792,-0.03777086931805784,-0.0392324341043048,-0.03112124570599549,-0.013498377041928892,0.00848845573419467,0.02711546870616638,0.03588325215489876,0.03242176951991951,0.019868251032706678,0.005514656885633403,-0.003402840072084765,-0.003380660413625215,0.00456109918351053,0.016098096382576945,0.02612079868564847,0.03127708983758405,0.030491090214620774,0.02388104045241175,0.01212026899103396,-0.0032138758630046497,-0.019320726435727666,-0.03284334082008184,-0.04133465801117202,-0.044315577736919506,-0.04320179697195304,-0.040458429569397075,-0.03861370759692582,-0.03918361380113086,-0.041557224653604695,-0.0431395556535962,-0.041093135144868585,-0.034425359819858975,-0.02621418465241975,-0.02505693507222933,-0.04294869288092346,-0.08879799391195732,-0.15915903679997373,-0.22895159699196674,-0.24883245205931345,-0.15800144521554843,0.08491653741681844,0.4645979293948205,0.889823983986922,1.2137832252397684,1.2946875631489931,1.0690533028010178,0.5921174162147185,0.015077715900257874,-0.48773656888335654,-0.7960290743022191,-0.8823495365734448,-0.7987604725872783,-0.6305389355190498,-0.45089110022452755,-0.29992402059001705,-0.1886393346160029,-0.11352741899389918,-0.06771959387019337,-0.044090811487665096,-0.0344625028420419,-0.030312365697961193,-0.025193093461676433,-0.016062201670324867,-0.003097708633016963,0.01076905662462034,0.02141329741364698,0.026246637457279492,0.025240199053162576,0.019847227658860746,0.012189833742518242,0.004575311249426273,-0.0010689649848271976,-0.0034332212199771565,-0.002614366187001331,-0.000647743166062963,7.919711843462282e-05,-0.0014381680342870767,-0.0050014886904144705,-0.00986803343960866,-0.014902323246021257,-0.018746219001669652,-0.02065863575642507,-0.021757416621714133,-0.02436166467199656,-0.029286574470798445,-0.03490325842824851,-0.039172573617432094,-0.04138019049533012,-0.04186022514419663,-0.0411857258428497,-0.039659628352673615,-0.037185403894449805,-0.03361548863757657,-0.028764544352181922,-0.022269217179995596,-0.014237317505147904,-0.005462607166061288,0.0037953209684514046,0.014374355208586024,0.02691300043640675,0.040889598220528456,0.055620721545460446,0.07142602295229415,0.08872501070864187,0.10662958844751853,0.12352346381949748,0.13840247595257285,0.1510618722337793,0.16158163488376112,0.1700486428205965,0.1766908726157389,0.18210359604729642,0.1868950789553522,0.19064036834063647,0.19132381329389775,0.18607879690529966,0.17263559366651635,0.15047457740223977,0.12104759499109174,0.08713276226232997,0.05163979111078848,0.016644558503738617,-0.016536769904942898,-0.04676714418248008,-0.07287006561609888,-0.09392166224262108,-0.10968258849916007,-0.12073243567076708,-0.12809449600973732,-0.13238102343263103,-0.13333278907377102,-0.13035304954757335,-0.12341088920237278,-0.1138347746467298,-0.10420105390958001,-0.09681511383519766,-0.09238211612380842,-0.0901799564006279,-0.08890559018596358,-0.08692785308440326,-0.08234721038069762,-0.07403755935728644,-0.06260277385358667,-0.04999930990684025,-0.03881005902932023,-0.03129569161779697,-0.028058285754379506,-0.027662118147978237,-0.027666551617206686,-0.026233767120167475,-0.022953917115677798,-0.018446150828706306,-0.01387626825804651,-0.010397147416286185,-0.008196403858255775,-0.006348949031830928,0
-0.0057119407402868696,-0.0069420556455568215,-0.009577753516740575,-0.014185277759934308,-0.020395619946880276,-0.027120310263965684,-0.03293087014689231,-0.03592191779802658,-0.03355499283014133,-0.023815816288874313,-0.007538649944858518,0.011003858809467883,0.02630315747540294,0.03404645665067194,0.03252935606147101,0.02354688073542824,0.01203247865951524,0.0038936938777131775,0.002923628868469362,0.008642032040462972,0.01735882707289014,0.025532463261605447,0.031061754082914225,0.03184484092575586,0.025806588352857974,0.013341383925198423,-0.0017963705005304747,-0.014845836602786776,-0.023049540937120833,-0.026640262684065646,-0.02769637706415648,-0.028297612118460987,-0.02916573609672629,-0.029931404653995394,-0.030518446751745518,-0.031104461196131965,-0.030824904646158093,-0.027968935433799323,-0.021864556036227424,-0.015091830453632892,-0.015105224484667336,-0.03260724915326207,-0.07466895636414708,-0.1347745879695805,-0.18443334477649345,-0.17361340374557338,-0.04848237092048939,0.21539937021520408,0.5822857096446002,0.9496952100698257,1.179039209365711,1.1574360614275647,0.8586541052034842,0.3628522954997162,-0.17947272422326765,-0.6173216305311582,-0.8619223674476615,-0.9089266723133298,-0.8150612814810363,-0.6540177825599712,-0.48293003911524796,-0.3321791693397381,-0.21176504156958523,-0.12218896478138551,-0.06128764195711956,-0.025261861153100203,-0.00763810546591321,0.00017573347309685072,0.00614968646685524,0.014727670525276983,0.026025452820093897,0.03726824538302011,0.045152861366983946,0.047517504077737346,0.04388870057681248,0.03591488264950694,0.027000351605101874,0.02037163476638966,0.017274322948114273,0.016632150219241727,0.016058808515056013,0.01337668897685201,0.007877245466992292,0.0005014485457646,-0.0075692131488289335,-0.015750447085165178,-0.023230310433388954,-0.028893849504114638,-0.03237125738607394,-0.03424056658117032,-0.035204567883441874,-0.03571552833788973,-0.03627258714492577,-0.0372258179961729,-0.038449304255538455,-0.03964932762107689,-0.040589069843861056,-0.040890869592635534,-0.03998674868853361,-0.037335734950618774,-0.03252173271304242,-0.02545704769867638,-0.016583397686604173,-0.0064095231337938045,0.004848155501816343,0.016985897629154312,0.030153842724175792,0.04529589049926866,0.06292790336698362,0.08217678526312003,0.10190311259753901,0.12152025776211883,0.140438356197672,0.1577833536470181,0.17268487617961334,0.18472501748721432,0.1944592654698331,0.2030624351932793,0.21106187280611632,0.21767419099542973,0.22109958883374764,0.21916373262826844,0.20997853845281375,0.19238599791580102,0.1662322088431446,0.13251417945577945,0.0934427114346496,0.052166596039291316,0.011793462314703941,-0.025359689616794953,-0.05755030322296641,-0.08354598793502005,-0.10320229643356879,-0.11756940969835086,-0.1281942024260613,-0.13626875506859285,-0.14213500878574473,-0.14533053592870385,-0.14514240097322395,-0.1413769897756798,-0.1347095833897499,-0.12661701919091525,-0.11893754784453026,-0.1126867868952734,-0.10755643135534924,-0.10308414496171006,-0.09915804324576379,-0.09506242205226868,-0.08943295970199144,-0.08138079016499312,-0.0712305185846154,-0.0605074141942587,-0.05116939008541596,-0.044466279015212586,-0.04053764479747675,-0.038646134108895766,-0.03701343143607545,-0.03317089075259884,-0.025867303685180032,-0.01634884765895902,-0.0070397267292169885,0.0003935844019877857,0
-0.0042585760577500366,-0.0038940997340585486,-0.005951644099792528,-0.011063516732224403,-0.018997966119209512,-0.02822711544120115,-0.03583127586303283,-0.03835572569027628,-0.03342308530319149,-0.02090422775656352,-0.003212089760800614,0.014883857485058969,0.027689192996558476,0.03147381320737788,0.026838563171678487,0.018443533793334986,0.011910653008785117,0.010320356288267316,0.013118057000064371,0.01762380299545327,0.02131010214878116,0.02313785613090455,0.023070638206636494,0.02054340434888604,0.014244791995622987,0.003912944282867269,-0.008291585721107324,-0.019005458292051438,-0.02608474260842039,-0.02941364249010081,-0.030193433093132976,-0.0302339154371174,-0.031050010018628425,-0.03279696419994725,-0.03428548713223789,-0.03378522752513119,-0.029622725250362966,-0.021256939078751858,-0.010866348513776712,-0.0045186892796725536,-0.011998770174736335,-0.04293387306175706,-0.09896066755849874,-0.16547558649538657,-0.2065612189490088,-0.16935103177759658,-0.005571678116200046,0.2942719994092281,0.6741939535045426,1.0157535710623762,1.1805815621889886,1.0769406989670551,0.711400658413381,0.19129612028273985,-0.3245394680458456,-0.6976953374565329,-0.864184007821656,-0.8434673495881383,-0.7059643850919419,-0.5277482477241002,-0.36116503373516573,-0.22948162880270545,-0.13617758485403228,-0.07620574008209115,-0.041953800751943715,-0.02477813146349871,-0.01618375933325851,-0.00963607360935324,-0.0019132465331510619,0.0068176626977574095,0.014524530544874303,0.019489678046520215,0.021506347184545395,0.021581735481007773,0.020877620658038044,0.019998973298645112,0.01907695547849511,0.01808244872664657,0.016826590952731833,0.01474076635786627,0.011056129632246548,0.005666666039414495,-0.0005284375703745979,-0.00649166020136124,-0.011524717451435266,-0.014962573945580048,-0.016577009847349847,-0.017267630530458006,-0.018543541356253267,-0.021377299379516622,-0.02574170908477521,-0.03070369974976537,-0.03496328160083176,-0.037709623042584926,-0.038883554003407546,-0.03882840487165806,-0.03777965978820766,-0.035665461765258186,-0.032512975333969026,-0.02853920098668199,-0.023721478367291635,-0.017960810546468337,-0.011634534206770988,-0.004977120866545399,0.0031659690976239578,0.014657911651340966,0.029891232082394505,0.047140639096069845,0.06408569429243646,0.07958856990115802,0.09400356700949375,0.10805707332270062,0.12204619959453222,0.13609743604319305,0.15016626887029833,0.1635611695900943,0.17512917111564438,0.18401034640571712,0.18994902677391576,0.19267794178094638,0.19148959826892142,0.1859071377794217,0.1757633793821887,0.1603260263541282,0.13875962135607955,0.11155222461860052,0.08055623335604975,0.04776348418472327,0.014678587038702746,-0.01729332980382415,-0.04693177265733295,-0.07349368345673979,-0.09587914172083332,-0.1124271875815622,-0.12246189378148713,-0.12704707653007674,-0.1277319273560585,-0.1255963631113606,-0.12173691810188739,-0.1173894582615682,-0.1133140533440043,-0.10972022106701343,-0.10663269473511913,-0.10397903539458991,-0.10130964980808974,-0.09764500828581774,-0.09191311023374729,-0.08361385126219954,-0.07323643704902216,-0.06230376266678769,-0.05270295139006481,-0.04558423507446697,-0.041024039287132184,-0.03845314691710314,-0.03670838052831482,-0.03409350391761156,-0.02930983161243142,-0.022455182292113796,-0.015050748739066552,-0.008882170118810486,-0.004470736220404864,-0.0010058799822205474,0
-0.002475274061342813,-0.0064499345708633905,-0.0131038948281529,-0.021354932132481626,-0.02988763187055049,-0.03686936707333966,-0.04028666816169316,-0.037979342204310394,-0.0281472193650397,-0.011329994310667463,0.00848790584488004,0.0253204091561971,0.03403464466054825,0.03316990894291138,0.025904904200194406,0.017937302759714932,0.014001870458416709,0.015686415442094086,0.02126478794649503,0.027125866523253783,0.0300071918271429,0.028398355932271357,0.022366682075559217,0.013021573747129206,0.0021307265844350953,-0.008504160414386286,-0.017584992656924824,-0.024596165484481895,-0.02961437374197281,-0.032691072970089524,-0.033895365631202656,-0.033866174977906005,-0.03358596006790497,-0.033579475887399145,-0.033343785321527916,-0.03128948497538109,-0.025590562860496536,-0.016096951332735317,-0.006633469613154128,-0.005783443028855286,-0.024433045252202044,-0.07022587372826204,-0.13924137174136947,-0.20665996438973427,-0.22396322604039542,-0.13277747212059704,0.10355341122176953,0.46519326376279896,0.860688901825656,1.1496548082858977,1.2022593192347113,0.9665803710191481,0.5014761467547217,-0.048587855234388626,-0.5218119877098294,-0.8089226267589038,-0.8867617817427113,-0.8047178885816799,-0.641886356528748,-0.4653394583169258,-0.31187896496665085,-0.1934557783305344,-0.11008906133079163,-0.057601711018981726,-0.02922777692485353,-0.016027545522711604,-0.008980686917041923,-0.0016096630957289255,0.008540534247073631,0.02011916280566566,0.029619843250343968,0.033831675346828766,0.03208850279214136,0.026532061626469473,0.0202176869296725,0.015292211899922945,0.012360019365238305,0.010765855140016083,0.00952548925121079,0.007949834080990502,0.0054027922475699645,0.0011717726924420028,-0.004791216554642369,-0.011415602348754527,-0.01726131380287451,-0.02129928041927844,-0.023142352369054944,-0.02312173383054161,-0.022212028713563897,-0.02180069688831552,-0.022904251730267416,-0.025410272585414968,-0.028523185944626613,-0.03152012957765707,-0.03368519831035796,-0.034154243346564625,-0.032493004354621255,-0.02919562876209773,-0.025171262567211777,-0.020956746435050324,-0.016525403510567294,-0.011467400466319671,-0.005325960362091986,0.002173373926478876,0.011575757308160548,0.02388672702932512,0.03939459091678761,0.056893024324588565,0.07478291129904756,0.09225749678855022,0.10882091787804725,0.12356272593539845,0.1358790575037384,0.1462799220148966,0.15581513727569346,0.16494807019807434,0.17346086589544046,0.18121328240334034,0.18766444110358185,0.19091740709156263,0.18879217237246482,0.18023279877520873,0.1649267574379566,0.14280599664296478,0.11449406465263624,0.08173617927654492,0.04725244973848719,0.01377617875880753,-0.01711524441031763,-0.04503339935086978,-0.06976188335365688,-0.09055080997884986,-0.10643634867471921,-0.11698599666908602,-0.12274614174923032,-0.12515321195784754,-0.125669949126344,-0.1248527127995686,-0.12261020299042771,-0.1189981486228095,-0.11433419001694133,-0.10898859871242617,-0.10313310125543292,-0.09668409323462067,-0.08978273198309938,-0.08292341921370125,-0.07638072825890022,-0.06982934590741631,-0.0626775774547843,-0.05478471599198035,-0.04671686657325478,-0.03949684352139943,-0.03422153742865116,-0.03129311450049972,-0.02984549335696094,-0.02837773398644538,-0.025764704008918487,-0.021416116708010528,-0.01525668250512123,-0.008016209683744887,-0.001083891458517951,0.004126607059465399,0
-0.008639252940077991,-0.009909216663788977,-0.012644555051585056,-0.01737836649412494,-0.02336185076300414,-0.028986884288799645,-0.03261410471949984,-0.032452450036181225,-0.026327700873203592,-0.01308665085265914,0.005410915171030192,0.024132920104034755,0.036773590579581655,0.03878904782302389,0.03045947338644484,0.017404254832891587,0.006962671767146138,0.0033955697320522094,0.0064230914371602495,0.01327309059498281,0.020797475036869763,0.02629012235966252,0.027779535093819595,0.023907142496395757,0.01429030209541484,0.000706201400913181,-0.013170937123228886,-0.024104213430138577,-0.03099430079211505,-0.03426722199231721,-0.03446944904245456,-0.031994787349199555,-0.027836301250210835,-0.023812953054153943,-0.021351754003898136,-0.020253331759856243,-0.019035850212758616,-0.016274217966355753,-0.012337388360358465,-0.011400943514505681,-0.021791881323473185,-0.05180435123578921,-0.100454386494192,-0.14751697467006114,-0.15134650942652836,-0.06127963656576417,0.15545985746448077,0.4821120388236482,0.8366242472517083,1.0916908622128838,1.1291481497396962,0.9011304899945219,0.46064709400161363,-0.0605004845783424,-0.5139849004642034,-0.7984699660015739,-0.890194984911861,-0.8311651813691919,-0.6902769603187465,-0.526370240716883,-0.37335334644119345,-0.2446840398948802,-0.14391873723287235,-0.07193909248013605,-0.027606936255390718,-0.005526254925373914,0.003355362776761423,0.008027546110175067,0.013979744140811785,0.022228003027803006,0.0309193679528755,0.03803258295702523,0.04263901818992223,0.04414684187918767,0.04202744704258767,0.036875400127848526,0.030447128631339377,0.024194338070176336,0.018692219227702735,0.014288774285887922,0.011300747422592457,0.009509976145577925,0.007576703643007601,0.0034714434030134675,-0.0038047185773563644,-0.013336486194707049,-0.02307814895385696,-0.03082375146069169,-0.03506685001471803,-0.035852982494686436,-0.0345491222817686,-0.03266709527234159,-0.031323574918835494,-0.03141787111708349,-0.03341073668475834,-0.03693573937296038,-0.04089263201684728,-0.04344214640930101,-0.042161949002798856,-0.035691090445475734,-0.025382379743528725,-0.014190738128492919,-0.004325142395992114,0.003501792648827028,0.010085732700890136,0.01773120681470126,0.028935796249421254,0.044523460892011514,0.06333609560701016,0.0835128533616577,0.1037950936335385,0.12341431793753455,0.14128792202090157,0.15624726986849466,0.16779844218637655,0.1764394446886875,0.18347614947226795,0.1902073213322039,0.19673929693001058,0.20164415288840723,0.20316045391172963,0.20033612444650079,0.1926221053781203,0.1789159598246806,0.15752450350341646,0.12735321778037412,0.08969586152860684,0.048807446526200296,0.009911736465153663,-0.02357537837173152,-0.05100693085413989,-0.0737161179152935,-0.09350266471304006,-0.11097618856518965,-0.12527337371194164,-0.13554522152442547,-0.14195475138356506,-0.1449900892436785,-0.14472543902414337,-0.141171293096839,-0.13474022894650883,-0.12634606183953706,-0.11743078653336544,-0.10944267152806482,-0.10305952760652917,-0.09824749149797085,-0.09450465172921968,-0.09058861008763848,-0.0849308091312213,-0.0768400000028784,-0.06719339474506311,-0.05796748315892747,-0.0507106093356704,-0.045487954447966564,-0.041485773930743486,-0.03794209911889418,-0.03414377498956352,-0.029256435006312927,-0.022861055791887092,-0.015417956353967904,-0.0077744917325432775,-0.0005204150333413433,0
-0.009328946493402872,-0.008637511985837346,-0.009824926727054512,-0.013975318781659932,-0.020419190839903678,-0.027494402675186463,-0.03314257643214809,-0.034865885684380246,-0.02998513169541882,-0.017022704960512922,0.001956603986882148,0.020840733381353876,0.032813044756799706,0.034708465767222085,0.02853488575673852,0.019620067377274272,0.013232867882992265,0.011809811430214598,0.01432013709834679,0.018006856228423265,0.020691384838266835,0.021513631325114215,0.020362999870574095,0.017087525260107032,0.011071436336677292,0.0019351912939412532,-0.009434361054764667,-0.02109569841932514,-0.031193945006756103,-0.03835753834870629,-0.04142858947568043,-0.040113292949239196,-0.03567543683391198,-0.030318617108895687,-0.02589102397521346,-0.02277561602445708,-0.01970082943810457,-0.015074170585664074,-0.009929027452593046,-0.010207749225295663,-0.02499458076155627,-0.06090963161362097,-0.11507890386255219,-0.16817723585299052,-0.18108924004301577,-0.10333750254457023,0.10185054312335072,0.425357862204324,0.7935823662243187,1.0819444519951307,1.1641900139502679,0.9763298423496656,0.555917602427425,0.028524873917721044,-0.4510624559152905,-0.7667720506875823,-0.8811586342627813,-0.8307889827866637,-0.6881264681145776,-0.5194625999406313,-0.364080023675607,-0.23705546353665585,-0.14092630800633,-0.07382096529074823,-0.03200844133123858,-0.00991986457071721,-0.0004971550223289087,0.0032637951609988253,0.006726933520655617,0.012800506851744352,0.0215139216737913,0.030747871111670218,0.038291542956804425,0.04284953543729774,0.04351366740230062,0.04003267422864873,0.033595644666623424,0.02613673796251579,0.01906829288031899,0.012786512998917473,0.006731681468075316,0.0003500378069961896,-0.005672802508438855,-0.009899921916341436,-0.011865252599248978,-0.012834490117622329,-0.014949494682289554,-0.0196258930393683,-0.026487374583583443,-0.033693321259670096,-0.03935102155555297,-0.04234023976799658,-0.04216520752257998,-0.039337620547477165,-0.03560010339703299,-0.03281068657644335,-0.03188065715400117,-0.03238178167786765,-0.032714684458428386,-0.03131610995427996,-0.02757446146131081,-0.021399180435535868,-0.01292572916415501,-0.002797306556082672,0.008104035007947333,0.019270293123991436,0.030802859127988056,0.04338404373273637,0.057883704412813174,0.07445012508215748,0.09224499899785031,0.11041824169077112,0.12855819320023879,0.1459921674915221,0.16144860231268574,0.17357323262136504,0.18177618328654713,0.18663851860065936,0.18935123212653465,0.19086093506896532,0.19121374022175686,0.18925040371252916,0.18340397934963582,0.1725238461621747,0.15527220061969474,0.13017749648230542,0.09746834859293782,0.059903921232556584,0.021206445527337768,-0.015629433537148192,-0.04833019660112794,-0.07514378736760755,-0.09547158396515698,-0.1099943216320895,-0.1201803842465202,-0.12768858121061136,-0.13348666828571,-0.13755368154794265,-0.13949640038043484,-0.1389566056479374,-0.1355592729739295,-0.1291407924567597,-0.12017919265279667,-0.1097520236614171,-0.09935660656646333,-0.09058247034696058,-0.08407877029848207,-0.07895038226528607,-0.07377265516069956,-0.06804339284493079,-0.06223887138849815,-0.05675885318127192,-0.051220916689812324,-0.04476623904094086,-0.037154053043255454,-0.029276895390703772,-0.022384301119443745,-0.017463325534084827,-0.014914252337575826,-0.013723344243606547,-0.011947217554126692,-0.008609714868172922,0
-0.0013694360797188347,-0.009663987371452142,-0.019946546103178957,-0.028379709752337157,-0.03203303661668779,-0.030591365548308276,-0.02535386918200128,-0.017207619690968463,-0.00630358855068704,0.006659710621094329,0.019284820760128947,0.02793273926539535,0.029694099282742612,0.024580352265337096,0.0161878928143479,0.009531044501908356,0.007639221565784502,0.010132213587153464,0.014437511730303524,0.01785670598229367,0.018833019652647727,0.016910007519354387,0.012004090888774735,0.0040964397284937865,-0.006148529618916657,-0.01651162589623513,-0.023700594227526642,-0.0257882006826854,-0.024172502504429323,-0.02241687694945417,-0.023518319456946185,-0.02840762753202304,-0.035944765800369316,-0.04385463511366432,-0.04936334391409867,-0.04901447939574024,-0.03998037583376507,-0.02305768185511709,-0.0045195346420816235,0.0040954943951198265,-0.011161374581546571,-0.059855356619127525,-0.13765942921381205,-0.21762861933357347,-0.24822247304216244,-0.16719405245966465,0.06613836409266921,0.43420000377883833,0.8440037469229931,1.1498417401374452,1.215861584473396,0.9872737491616308,0.5247759727893274,-0.02245236112354322,-0.48866222411130394,-0.7639017968140127,-0.8281301195536505,-0.7362284202776526,-0.5723083322362744,-0.4059766599325178,-0.27295869441271686,-0.1793392796291159,-0.11592108816201414,-0.07155947744803744,-0.039681813303541945,-0.01765152840913329,-0.004286794271201162,0.0011674671835896315,0.000551492320844265,-0.0016739190413179311,-0.00021660701303360605,0.007183347735538376,0.01813849132874066,0.02741467494621307,0.030510469480630627,0.026523521914276444,0.018432508247797904,0.010992054278018037,0.007281556647545264,0.006088182629252108,0.0031490050199820038,-0.0046422696928024535,-0.01639641624874325,-0.027875960757060357,-0.034271271583661805,-0.032821808670879804,-0.02467101241862888,-0.01534560703239253,-0.011844407276089016,-0.017546541768841194,-0.02980373403355542,-0.04241219739390026,-0.04988673489627889,-0.04974027470317818,-0.04265382805059575,-0.031922431263155984,-0.022133048385299545,-0.016593888471582243,-0.014882547436866529,-0.013397871687239054,-0.00895252933956514,-0.0016138590109482272,0.005796124822013566,0.010085986652599608,0.009895072773461008,0.00751814719449983,0.009043900706156429,0.020867627014145768,0.044611654657164004,0.07484077424598477,0.10156071769569766,0.11607336011490084,0.1163891848467867,0.10878045677865168,0.10446732108192497,0.11292235963091476,0.13604726444477724,0.16683217439482723,0.19287433335553236,0.20322058551106054,0.19400350541207673,0.1693482674328769,0.13888047580802435,0.11286577792727012,0.09667663140780158,0.0885678081390876,0.0814406804098915,0.06688839862761801,0.04003759599047996,0.0024068529300170123,-0.039034555636599064,-0.07554258259122926,-0.10077140920325764,-0.11305164649160618,-0.1151364486990395,-0.11251541851713232,-0.11021870563137594,-0.10929218412618019,-0.10684879936613906,-0.10000698911257282,-0.08946313408549733,-0.07989369196885486,-0.07715844246117924,-0.08388104869745672,-0.09691698580470194,-0.10885126676178977,-0.11145506200341902,-0.0993427058191066,-0.0737380202519213,-0.04337887943120251,-0.019977299755293623,-0.011643221542594773,-0.019133066944916777,-0.03588082028413825,-0.05101416382836242,-0.05471155297407941,-0.04362792610582045,-0.022766830457927795,-0.0021088009177934637,0.009351656054273884,0.007698516415330595,-0.005058698470396736,0
-0.008097169549416703,-0.007641162995665304,-0.008535660107377038,-0.011603146978539746,-0.016496044613072015,-0.02183837376179712,-0.0254433534546318,-0.024607431865096847,-0.01725341234644618,-0.003556016772166821,0.013416166868875904,0.02855913194041455,0.03663442713870711,0.03492915559703342,0.02522417840860537,0.01324700154177292,0.005812930234311689,0.0070222740229958095,0.015684506519303525,0.026217558247869848,0.03244949349063458,0.031102065164560676,0.02258640964380828,0.009608779248364417,-0.004456096356611456,-0.016498654298944815,-0.024405663173906356,-0.027860778229262573,-0.028231653310922113,-0.027161828667188474,-0.02575884831097841,-0.02511349783299365,-0.026181044436125348,-0.028860632537757648,-0.03178646231894972,-0.032720337211142064,-0.029330821848950975,-0.020660190145265562,-0.008424932382514249,0.002769841251181334,0.005841286328899889,-0.0071175301892702604,-0.03958062143600755,-0.08265091009086205,-0.10925816017858826,-0.07675894821835115,0.0558708606009288,0.2991032884775764,0.6087018583193045,0.8866109812602047,1.016345495983753,0.9196349691206243,0.6013928034327526,0.152257225764349,-0.2952505561198273,-0.6286660019722642,-0.7977519844751558,-0.817390167115488,-0.7386598965207701,-0.6132010792112784,-0.4742573019324593,-0.33870030341007984,-0.21701956324814925,-0.11824469982664437,-0.0477997445554501,-0.004347051975150638,0.019368044788844185,0.03231185369612714,0.040949306569621355,0.04759825789949216,0.05160672101145746,0.05170492424031278,0.04795573698872251,0.04221590383848573,0.03704396082780072,0.034338143960213986,0.03462646391221472,0.036739635670900064,0.03792354994109051,0.03526380984088344,0.027872023056803513,0.017635188753589905,0.00766465216119863,0.00020011356917596333,-0.004168058532995218,-0.006216564845532367,-0.0075074289541645755,-0.0093312886216687,-0.0117745329623887,-0.014346732098504213,-0.01725049672685814,-0.021055642612738165,-0.025802606520431454,-0.031114300133265854,-0.03603200198530156,-0.03883665863522267,-0.03812131935564219,-0.033630730690937874,-0.026162379304961965,-0.017549270238209326,-0.010382401212944906,-0.006711486365314768,-0.006414576691905724,-0.006711453833899011,-0.0035474420120388843,0.005707526967612984,0.020231823424926396,0.03646655317988788,0.051137104408500125,0.06396891975111041,0.07734971222001169,0.09329355809948793,0.1113271667869277,0.12840557653439005,0.14020411318483775,0.14434747807183304,0.14295222092330034,0.14089662818202656,0.14184663593634475,0.14612021005492778,0.1512850399238377,0.15423007487349494,0.15277866747401947,0.14555275155016703,0.13130741572702945,0.10976631686279764,0.08298646214901445,0.054543262742443616,0.027059275507513993,0.0010543220859034856,-0.023890988746834804,-0.04740608372383685,-0.06788303747517932,-0.08346296833682121,-0.09349740412255382,-0.09888868052225397,-0.1010360692399534,-0.10121121585936017,-0.10084763869491095,-0.10135036596500198,-0.10334851277425053,-0.10652256974354742,-0.1097112209547496,-0.1107289793699072,-0.107085869543267,-0.09793522111999373,-0.08511131073354818,-0.07197251825776949,-0.061419641164311096,-0.05489707752376661,-0.052262645080055514,-0.05179899304615676,-0.051126217297230485,-0.04880661840161683,-0.04467535281111947,-0.03887578414686108,-0.03150670107305625,-0.023035946545523725,-0.014303384632726178,-0.006340130740514862,-0.00032973439630791697,0.0029724065096006537,0
-0.03569117788151372,-0.04041603870705816,-0.03783584850428275,-0.029783766430215047,-0.020540442314388053,-0.014857068979935474,-0.01531298693637758,-0.020219654677751712,-0.024264385625416378,-0.021939006183422826,-0.011023771528366713,0.005815627805196594,0.021990659042304787,0.030811180712486397,0.030110075066171697,0.023820618147127007,0.018728360746842993,0.01918531710776688,0.02475946167266744,0.03185879694488704,0.03662972909293547,0.03720758366768543,0.03407271053438858,0.028156945787808155,0.019118924655784363,0.006284795618730836,-0.009281533402580203,-0.024372758512672545,-0.035081411211231275,-0.039180457996504915,-0.03759730743420867,-0.033411262474221035,-0.02950584537642919,-0.02650898249536949,-0.022657666337979807,-0.016235577913255046,-0.007647899883961214,0.0009415148560000483,0.006598374952732065,0.005611728143480366,-0.006656551637940037,-0.03423460045761781,-0.07636660733735084,-0.12123913646540763,-0.14040964330108535,-0.091254839948926,0.06437808901581134,0.32988063895192554,0.6517893630812914,0.9248867798311511,1.030731163953885,0.8960819377605311,0.5369759968966823,0.05696807194022713,-0.40117581040790806,-0.7206209533590919,-0.8542330925672442,-0.8257623849155438,-0.6978124842258507,-0.533743612662964,-0.37526398968157704,-0.24074462288336745,-0.13520478126235755,-0.05953229938759311,-0.012441818389959523,0.011634023827681438,0.02184692535706767,0.026967041340395757,0.032181618962915735,0.03842057104328411,0.04397168898762101,0.04704024849349545,0.04716340012445164,0.044862171546392646,0.040770499069741124,0.03545387445393818,0.029621704536670675,0.02409815457776501,0.019470538212637178,0.01551309283246468,0.011145861200245914,0.005411289134410222,-0.0013341084699487055,-0.007274271461754847,-0.010242978888694633,-0.009249851506051624,-0.005698744880248451,-0.002972689301665001,-0.003998325706742072,-0.009530204033851176,-0.018797090761225748,-0.03043431592962024,-0.0423261092138732,-0.05176707545191766,-0.05669895732647742,-0.056458726800101895,-0.05149744939541898,-0.04346566994152234,-0.035265693606669785,-0.02971161874646166,-0.027519223564097983,-0.02627531382220539,-0.02187257800634621,-0.011686795878135394,0.003996285474950498,0.02317364736180642,0.04352377290760325,0.06323296749865716,0.08166879673663571,0.09911036316288208,0.11538210178291616,0.12903073728802703,0.13778961623922628,0.1396793606465152,0.13473876873686474,0.12668034523264082,0.12197823466682249,0.12581257338246865,0.13842383249055318,0.15506892091048718,0.16867905612078038,0.17290154563422291,0.1646308243842555,0.1455420645571907,0.12089159872345225,0.0956387503154105,0.07170960758554076,0.0483715943807675,0.024052324920438965,-0.001813890838974857,-0.027972027408274903,-0.05210366414841211,-0.07185902511188336,-0.08532268441971004,-0.09130590604238327,-0.08984729554392626,-0.08338960676655924,-0.07727443582197396,-0.07749853696861755,-0.08710845717983517,-0.10410705196269794,-0.12232930173018942,-0.134602016077091,-0.13570521950044376,-0.1240727964844265,-0.10242452039235389,-0.07670532502949558,-0.05361604745294571,-0.03836200424677069,-0.03322719896908445,-0.03656773271567421,-0.043174143345485874,-0.047359653667954124,-0.04679469307511444,-0.04297020115922885,-0.03807397660440784,-0.03246970077950831,-0.02508630152860889,-0.0151231240828,-0.003353658445208107,0.007644715632244638,0.014880655664281851,0
0.021535446093497605,-0.020782591112288376,-0.05435934655726036,-0.07153214597990505,-0.08028236485208687,-0.09513334279920789,-0.12229501062096015,-0.15072564720909082,-0.156646685411684,-0.12048018371763872,-0.044291912378999376,0.04520654422966354,0.11193932629593517,0.13327563403049864,0.1138270738045469,0.07997424114669616,0.05982739718399852,0.0643597621367456,0.08272847928690492,0.09362603773196232,0.08291670802815987,0.0527518938128973,0.015424871893710421,-0.019341958169343015,-0.049038641870551236,-0.07150528335973269,-0.07718141340358074,-0.05205117840861763,0.007822345082401093,0.08237764593687148,0.1309171593605414,0.11696422641622035,0.03735125116389804,-0.06962590962767241,-0.14622178162799465,-0.15247524703077017,-0.09214358414257229,-0.009117676108819108,0.04275015628475973,0.03378066707028757,-0.02825583513970916,-0.11112406540795128,-0.1804485565068226,-0.21094827405297975,-0.18211947612212226,-0.07155160527416311,0.13845692420064123,0.4389361812675489,0.7727747775098455,1.0368863541474371,1.1186123231829332,0.9516456368784509,0.5575636682910472,0.04356521864919716,-0.44375294093698026,-0.7806859483870412,-0.9116726930921988,-0.8574083992470667,-0.6885041152464579,-0.4868200773774442,-0.3152379448405849,-0.20294420589067147,-0.14588702123165315,-0.11924495586865914,-0.09564290532223657,-0.060827440579599185,-0.018473815633320522,0.018397890338998118,0.041489828243892496,0.05441360587641342,0.06734196467893899,0.08540603164689652,0.10256420149593815,0.10608697051092493,0.08741609171362474,0.050329339276812976,0.008580866876646363,-0.024888731245338174,-0.04616937198701706,-0.059208005726033096,-0.06900642783244272,-0.07650379824105477,-0.07820353735458783,-0.06983371110128554,-0.05101874854148497,-0.02602561440994009,0.00018649124680464486,0.025002100509331167,0.04688874918683633,0.06315626632969806,0.07038751818788791,0.06695689453496961,0.054840027475096115,0.038301445781712566,0.02026531059409316,0.0006507285984257141,-0.021110767960271386,-0.042597279815549643,-0.05849883493010336,-0.06406864875553288,-0.05805583660586403,-0.04349768800994652,-0.02648756272348099,-0.012773400836435942,-0.0045575049086223505,-0.00022668954870545995,0.004368552741845578,0.014963338596162414,0.037513132124324215,0.07500438141201798,0.12276064437634276,0.16674771264670155,0.18958149740798022,0.18190930463200178,0.1511157306599433,0.11965701069959332,0.11173622331749054,0.1367194751421588,0.18160687098365452,0.21882823560044026,0.22422262120316097,0.1917407133293366,0.13460112809864822,0.07453567912573858,0.028290316884056213,-0.0003485535904158947,-0.018880612806861763,-0.03692541230614116,-0.057828253845656895,-0.07792895362026098,-0.09180369104899874,-0.09744555950425697,-0.09790582506659361,-0.09836935280047765,-0.10108080626584777,-0.10355400426671332,-0.10150222563706356,-0.09271526032435448,-0.07903311380301112,-0.06535558492266673,-0.055847872885156136,-0.051254612985638486,-0.050673360098296094,-0.054513041155026684,-0.06366584361931577,-0.07621872940699977,-0.08660673805867322,-0.08833444067542903,-0.07827050582685358,-0.05975849857941813,-0.04107664574028068,-0.029507095779088218,-0.026279229872154364,-0.026774878468093788,-0.02523049831892285,-0.019073846246455,-0.009361080368516081,0.0014206459777661353,0.010847421127865107,0.01674103394135441,0.01788239200289487,0.015030898894429719,0
0.021865302378264964,0.009396361089382077,-0.006688420427460557,-0.02464028756342259,-0.04221051808640464,-0.056334979726349405,-0.06378625965008491,-0.06254924390620796,-0.05208434449572777,-0.032993244069505885,-0.00791063105116118,0.017384797669580808,0.035272813537900315,0.04051389619266205,0.03453138460885204,0.025377220586339188,0.02202936778968662,0.02735548696560379,0.03612932926158828,0.04019746131261092,0.035911829488419124,0.027140597953622586,0.0218979575361642,0.025111283758904094,0.03318038366560604,0.03603870635078433,0.025256889242687087,0.0008627737591016945,-0.02810698339618514,-0.04947854202281898,-0.05580175855997946,-0.04812378290345935,-0.03409274166385813,-0.022877468827853294,-0.019651062634565335,-0.022906584378253977,-0.02671523943904918,-0.02580581620664864,-0.01987969408330244,-0.015412359859262531,-0.023869868684804268,-0.055677989078950746,-0.11141071295543797,-0.17352746679705278,-0.20356819582114846,-0.1513727553217172,0.020854394706422814,0.3075317456990738,0.6404402716878134,0.9018155532105567,0.9742217025732177,0.8026835178107616,0.42886141711201986,-0.026773788002570846,-0.4235463441896629,-0.664231179897075,-0.7284092841560594,-0.6611096249188204,-0.5321276165827986,-0.39768673841028745,-0.2851766377910505,-0.19895329034730722,-0.13354305812509754,-0.0831710940603909,-0.04400053485140261,-0.01283564036133484,0.012680586049086232,0.032801511831979116,0.045951357097106876,0.05081438455481779,0.04842769609645947,0.042037549584301726,0.03523556994547553,0.030770621443296464,0.03003076910772987,0.0322911206004112,0.034886930678385324,0.03487528843490144,0.030686862945446328,0.0232690442861826,0.016549542943131046,0.015115769527169375,0.019834045812530447,0.026508175422891335,0.029251007072347027,0.024563864187884962,0.012615585256748479,-0.003928996799327755,-0.021381367544532612,-0.03594675537253683,-0.0445725422172741,-0.0454366292839049,-0.037981684779195765,-0.02395420885387386,-0.008638697101613293,0.0011001516517275681,0.001438861452906145,-0.00568106624043321,-0.014067696446470759,-0.01743390370685055,-0.01304790272615404,-0.0024789531522835303,0.01044832139409076,0.0222232300238269,0.031101446559228852,0.03759335723512664,0.044327101227439644,0.054589318318002025,0.0693706599143377,0.08542840209018573,0.09700465764828076,0.10005044753564704,0.09554280682511407,0.08922177616377619,0.08742566503221914,0.09239131194461815,0.10102346821924969,0.10733907750716157,0.10632670175865158,0.09711118029527106,0.08350200579876345,0.07119248591112236,0.06353953895701228,0.05940847172028982,0.054511399830394276,0.044506534429297556,0.02780997649700564,0.006496164493198498,-0.015693902916476005,-0.036373654629511,-0.055222093573691095,-0.07201245123753369,-0.08481502359563965,-0.09035291589699285,-0.08629941917454223,-0.07431298837256949,-0.06117971810299718,-0.05552723670520452,-0.06177383483964284,-0.07667826146601942,-0.09176238268217275,-0.09914911429451263,-0.09551097424992758,-0.08206384971020203,-0.06265516412815793,-0.042192883880870655,-0.025910516376602157,-0.01823107567807067,-0.020421486677563754,-0.02900176820296651,-0.03720334057106819,-0.03851452787978189,-0.029845980354781452,-0.013405389969489683,0.0037984417472099368,0.013928908923134942,0.013226230583360192,0.004069641592313921,-0.006464346671152357,-0.010276823896401246,-0.0025691779218354957,0.015340508309282769,0
-0.0009470759365839566,-0.009861201264478658,-0.013967238131038819,-0.014181035806284395,-0.01368692008180453,-0.015238563392289553,-0.01965447898396886,-0.026179848769273203,-0.0333985904045958,-0.03933948444658041,-0.04095919251129793,-0.03433419772638192,-0.01686135760395927,0.009096256551871178,0.03507341421133153,0.05113023217109973,0.05332677360521258,0.047221229109705304,0.04380062271962486,0.05089150608352665,0.06637700440639267,0.07867640638199094,0.07545691653648126,0.053568264151970885,0.021501066614122294,-0.0067395443252747335,-0.021198548669166227,-0.02194765778761675,-0.016912224901728824,-0.013922694825914347,-0.014133060100119969,-0.012535371978132393,-0.004573777697473272,0.008584172004798232,0.02121178200931545,0.02760701280278626,0.025158510472574815,0.014752050163248855,-0.0006369011098138538,-0.018000425465380304,-0.03603499586633026,-0.05548455092218927,-0.07728181434555113,-0.09830357581749641,-0.10441545375471466,-0.06587516582642008,0.0536617463395127,0.27164459860902274,0.5583673830792066,0.8279263419149959,0.9648992154684403,0.8811053631372486,0.5686204645355906,0.11129160034067376,-0.3543803254621033,-0.7039689579387383,-0.8759273754570799,-0.8811144705669354,-0.7739528496689576,-0.6134298503722599,-0.44178932503295043,-0.2853299987108067,-0.16185402088493342,-0.08164226026730693,-0.042481400087872295,-0.02801441521124933,-0.016294480578480604,0.006293499701525644,0.037730931162285215,0.06523016703831605,0.07696371152464647,0.07119339592541249,0.056804059711386995,0.046078439711676036,0.04602143375209333,0.05460301268908635,0.06377752422307217,0.06618562262009996,0.0600969857745771,0.04905956274311357,0.03758897697431137,0.027632651558710086,0.018521430617116474,0.00877769562387606,-0.002149035316375048,-0.012690833405433699,-0.019931655307600826,-0.022491715171505063,-0.021892636773730937,-0.020517770400311032,-0.019007587056400228,-0.015644792165768712,-0.007832598743451954,0.005238653514397215,0.020556973840777985,0.031933071146847736,0.03357223458164225,0.024162893506623533,0.008325466528096449,-0.0055447682483986144,-0.009604078775476657,-0.0008496880631964094,0.017206608202049178,0.03702226458847987,0.051594966564936486,0.05724942161220274,0.053988518465641275,0.045630701872445306,0.039584542904112785,0.043679595029911714,0.06100494006324499,0.08736845701745052,0.11321880815271285,0.12868843220530193,0.12915376952045285,0.11708840572286698,0.09915234298682479,0.08233692229339246,0.07163887197451893,0.06888489668730309,0.07282431631773766,0.0803672223110497,0.08755043431014686,0.09016843250246767,0.08483301454941634,0.07009967921491608,0.04738912326723646,0.020964915779391895,-0.003909006473523879,-0.023554978164553236,-0.037414058796989294,-0.04732691659088487,-0.05534666102898164,-0.06264405143902166,-0.06992397586454976,-0.07796614177425347,-0.08755032339974118,-0.09861089953582702,-0.10935501579335026,-0.11599835661976876,-0.11391532215981244,-0.10118836899357289,-0.08159921854275151,-0.06274675707600354,-0.05079666465782009,-0.046491651242088414,-0.04491226945511258,-0.039598432518775956,-0.028422834803230733,-0.015558873335025978,-0.007786215324203567,-0.009081981570216446,-0.01759172414907219,-0.026922385927606245,-0.03081291773630085,-0.027288562330819062,-0.019294737120063937,-0.011826708940444738,-0.008016031427817597,-0.007473750720371472,-0.007630665209570658,-0.006654587237358015,0
0.009658694049193804,-0.006007595880387545,-0.018602572741754465,-0.025431454950259506,-0.0275565105215616,-0.028492430543091446,-0.03127500071546579,-0.03649128485064764,-0.041487629799449775,-0.04117715249603504,-0.03141270268853224,-0.012390631041447147,0.011037969935305252,0.031800848239631516,0.04393420095118753,0.04561802932847908,0.04022345217281995,0.03361432872887212,0.029770665034264374,0.02866634574977549,0.02729719077282114,0.022727377640462506,0.015113365196869831,0.008055356991604515,0.00561682106255534,0.008546812424144557,0.013410858701485251,0.015407512234548053,0.011740402094853735,0.003056357957664569,-0.007074280744762122,-0.014607476345807297,-0.017957094546268294,-0.0181317305431389,-0.016530897450846294,-0.013828070270695964,-0.010410368954270052,-0.007238946041935391,-0.006512182349411974,-0.01128416832249397,-0.024368035880111175,-0.047255735507633935,-0.07757241574928668,-0.10337292789938916,-0.09764244543711476,-0.02205066514140055,0.15367870336691072,0.4226878714797348,0.7210135369307595,0.9382167235754824,0.9643667529615937,0.7501482876457106,0.34039624704963556,-0.1429991288408825,-0.5591234736845222,-0.8117175101821644,-0.8809064658903153,-0.8098268579165184,-0.6650197713857608,-0.5011256758841479,-0.3479862523357341,-0.2170914392352645,-0.11247976107195982,-0.035991162732003534,0.012853045879137468,0.03785777910990664,0.04591865429537458,0.04548815209042182,0.04362642213466904,0.04366733870835633,0.04565518321557914,0.048103015154995876,0.049540033944945716,0.0496075308306369,0.04892100407565919,0.04800977531427883,0.046612797028919344,0.043822873643945257,0.038892769610900775,0.03181010734665371,0.023263018305691573,0.014631763099784137,0.00742166324952861,0.0020611026063293595,-0.0019343491845489006,-0.004778989298298602,-0.006269470514698894,-0.006433616441957527,-0.006006956053986221,-0.006096311943481571,-0.007168839534084501,-0.008693851552892264,-0.0095400423761976,-0.008495381456227113,-0.005155539665351445,-0.0006191814434031236,0.0032002002048902296,0.0051925085927854876,0.005895748834656524,0.00695014228198851,0.00994840061929975,0.015332596355502376,0.022013348591446862,0.028465243987063727,0.03434769369603735,0.04079170749313136,0.04909670773909715,0.05899490962291923,0.06837069524957155,0.07522037679432815,0.0795472176859002,0.08328636860500468,0.08885402603014732,0.09729774793474019,0.10718338586018308,0.1152644772336952,0.11849553234928034,0.11587513476544452,0.10897602297438808,0.10065953920827707,0.09283186664905257,0.08509443629178695,0.07517135343021396,0.06074100704456694,0.04126837734888901,0.01851219715711756,-0.004524190550406482,-0.02540953261102224,-0.0432299103172446,-0.05809866229144308,-0.07034660540970557,-0.08017276900545549,-0.08763525922140744,-0.09269431923691218,-0.09520125846404484,-0.0949580493154782,-0.09207677328933468,-0.08760438970943167,-0.08354286440241353,-0.08154217273213259,-0.08152992034168437,-0.08168983145339351,-0.079448321687109,-0.07284412521037398,-0.06145893831096782,-0.04659146167980011,-0.031204694015743363,-0.01907722233302424,-0.013274528557751047,-0.015009424698375615,-0.022640470544838608,-0.031462254058690034,-0.03575336968976611,-0.03194573046074135,-0.020646907971927878,-0.006548204343964276,0.004204282076803886,0.007889192607672122,0.004964110795260495,-0.0011877316861352207,-0.0062700886842405185,-0.007090744344713429,0
-0.002707605075699955,-0.0038965948341484515,-0.005450402055560191,-0.008302935885612709,-0.013033128773156606,-0.019404904209451155,-0.026746125661891607,-0.03407072275601575,-0.03936648341402298,-0.03949001874360939,-0.031597250809866445,-0.015111138776417796,0.006858854888413375,0.027828353260272533,0.0412651054218845,0.04474732603981832,0.04085067718238673,0.03473259935175342,0.03098569635229843,0.03139111661499291,0.034603964218569226,0.037711245192832206,0.038593840428215447,0.037161127670083276,0.03400180632607581,0.028690355398273765,0.02027144859340052,0.00853491467622602,-0.005319497116697296,-0.01850995829896179,-0.027660412208344903,-0.03088498886206267,-0.02909057200805757,-0.02507144325200751,-0.021455749566523533,-0.019285131718978995,-0.01752440565830056,-0.013862805556738859,-0.007127090070701942,0.000148790489297414,0.0010153863544877452,-0.013756365501530915,-0.05067731078103951,-0.10612572650006477,-0.15814651737128402,-0.16374517018457713,-0.07203148383150475,0.14491258173591665,0.459484125804981,0.7790933998009176,0.9758104403323092,0.9470188528416896,0.6723200035280821,0.2291965815779364,-0.2429932426977279,-0.6088738558214135,-0.7942036884178556,-0.8031791197642326,-0.6937139016829238,-0.5355767050703906,-0.37971083119998095,-0.2501938295594146,-0.15178730541515165,-0.08099813189671264,-0.033476239147121695,-0.0053313939075140225,0.008710631919489977,0.01508937768176136,0.019183061330968147,0.02410969445071063,0.03060215268577385,0.03750386925579227,0.043180777519788036,0.04666794669591318,0.04797051956639795,0.04781899552807507,0.04668238633570353,0.044026754932983345,0.03896755246709899,0.03147999843036275,0.022763324435669793,0.014431557727912232,0.007558804370581556,0.002588776425111374,-0.0005231291579872142,-0.002286516039809062,-0.0031588303452061836,-0.0032627790582613536,-0.0028865760893167025,-0.0024241811180931655,-0.0018196593970019655,-0.0010130888290129899,-0.0004159917502217156,-0.0004169589907827816,-0.0013144653812493662,-0.003579925625658868,-0.007086243426570858,-0.01039644831902195,-0.011634911006937657,-0.009743872446026808,-0.004709394177000982,0.002777358158478549,0.011835049802667679,0.02216478915071677,0.03414386290205597,0.04761459590230966,0.06065712014132074,0.07004086095517231,0.07350325976866182,0.07152076558896904,0.06673838227095144,0.06247151418240639,0.06167829848236379,0.06611448219654718,0.07525537823533207,0.08583894468044864,0.09343824956567189,0.09509627748868128,0.09072438833115998,0.08249135887170789,0.07303386952640113,0.06396211979427688,0.055516544744688465,0.04708587211021335,0.03806887458993327,0.02857163885665156,0.019084952745037295,0.009301949885198117,-0.002384766073276503,-0.017636370689183126,-0.03599260670188861,-0.05409065029044925,-0.06747590675319756,-0.07346219436605539,-0.07258296192798158,-0.06791805349440067,-0.0632436496778385,-0.061105485218480415,-0.06185992330189665,-0.06413983082230351,-0.06615634092422444,-0.0666100812685375,-0.06463190567591846,-0.06001782009831956,-0.0539476574177763,-0.0481660520005822,-0.04314524161262549,-0.0380424858713924,-0.03223392090977451,-0.026018748353766986,-0.02023034863974438,-0.015742692040915735,-0.013071264918028177,-0.012085579622028001,-0.011808335432266235,-0.010751836441367423,-0.008018569166567504,-0.003817343043090249,0.00124220201230737,0.006584730470380665,0.011335618539828802,0.014589288669287869,0
-0.02707363582360995,-0.02700318942157636,-0.024644109826255804,-0.02077257364898339,-0.018159172289483324,-0.020287441119737352,-0.028071086860157923,-0.03814529568228971,-0.04417975819342117,-0.039686272642049915,-0.02150962506596271,0.0073263699524926335,0.038021850865335875,0.059647693013174366,0.06430161622257087,0.051833639632668606,0.030675643710273256,0.013035373576704992,0.007640121410552182,0.015350202718679202,0.030363318535631734,0.04520209841628024,0.055268438322918986,0.059495076602995835,0.05740060151234554,0.0472466502634739,0.028246621083470046,0.00359333778903077,-0.019928455065751922,-0.03551445258155522,-0.04008974696481017,-0.03557517322807558,-0.026745773576483764,-0.01800558204299162,-0.011966764642804533,-0.009193388795162289,-0.008094772027880628,-0.006223779528165636,-0.0026374387757544344,0.0008759482063728937,3.490989745086109e-05,-0.010580393828415779,-0.03400996569359293,-0.0647509351726942,-0.0819121800329149,-0.04860451585710797,0.0726279410351151,0.29009420131073027,0.5588178056866602,0.7843644403662311,0.860948552513369,0.7259989489970684,0.39759092789170225,-0.030027196847304656,-0.43072929389094455,-0.7043009633732664,-0.8136646082698512,-0.7830624683990033,-0.6670069204979865,-0.5167601020179348,-0.36521617293931474,-0.23020474626636697,-0.12181538973326782,-0.044765790402518366,0.002050100379306717,0.02522985068909913,0.03462216636935643,0.0392937148260279,0.04412944291260519,0.04960882699531393,0.0540108248064949,0.05576420540131283,0.054646205159785896,0.05161701839218354,0.047924772304702684,0.044506820670874817,0.04187978622692423,0.0401522718221182,0.03936405035118964,0.03963007997365224,0.04038888434807699,0.0399986319443058,0.03663091385800904,0.02966795269879928,0.020541651532999316,0.012098949722366302,0.0069149186955487,0.0058637495880683515,0.007382148710873811,0.008388132154201419,0.0069258814543921455,0.003554642217936529,0.0001141461384823201,-0.0020674114129166513,-0.0029490833150218106,-0.003309251418106107,-0.0036175725454066407,-0.00324161080165844,-0.000603153679666506,0.005363736345061182,0.013555539323235779,0.021043502284564638,0.025353543577134745,0.02636040804394957,0.0261853660261169,0.027439860234021937,0.03136891822598513,0.03724907423891991,0.043187001391572756,0.04759065491369221,0.050234285271783245,0.05179527293459433,0.0527810982746092,0.053490711128082555,0.05418724377957943,0.054766471695298545,0.05488562572120811,0.054568404258922766,0.054115667444176715,0.053367759649936765,0.05167946420095474,0.04888528325650584,0.045651844274755306,0.04254451861829181,0.03928414080130265,0.03458367335692147,0.02667975177356907,0.01506231453257178,0.0012538997497371154,-0.01246146376929832,-0.024386449872841613,-0.03406449484591418,-0.04231235253914338,-0.05035297355202578,-0.05872374250356799,-0.06672403544067458,-0.07266882019756266,-0.07482875171698396,-0.07225951800157555,-0.06544663244512917,-0.05661071095500632,-0.04852164655073852,-0.04256265295374795,-0.038276631520123665,-0.03467050063076026,-0.03152721122524198,-0.02935380288790124,-0.028407207712317747,-0.028110652162422246,-0.02710480357633319,-0.023818576668697307,-0.01765145768259357,-0.009473274672009492,-0.0008459130976174387,0.006533512873995988,0.011100412019899197,0.012417450542976912,0.011809150511226968,0.01160872122403223,0.01371752191411688,0.01829912250881697,0.023489322697799596,0
0.0074933762522246565,0.008004853011212964,0.0060820842674295435,0.002356397924318172,-0.0020089065992097083,-0.007617170076158529,-0.016042379675466567,-0.026843318177281736,-0.036253865602570746,-0.03874816807600939,-0.030331478099864,-0.011328950795682738,0.013491031592113378,0.037121292005030795,0.05313022826690422,0.05786788129609119,0.05161060247041445,0.03884864207220415,0.02691799486581177,0.022130724137274595,0.025812844267586222,0.03398790594187049,0.040908791373300765,0.04288677355464022,0.039451812500966035,0.03210164336234183,0.02237256111332364,0.011003099536451108,-0.0008490792191313736,-0.010472551320208526,-0.0153002145572076,-0.015399622703381518,-0.013036286518709764,-0.010215645004393446,-0.007353404328270636,-0.0038073256537816138,0.001041980616841037,0.0073461520664180185,0.014427225288195589,0.01960733234017167,0.017170322909009748,-0.0004243546533454967,-0.03646606910979791,-0.07949181549730526,-0.09648459685203133,-0.041068476919256525,0.12019276833666508,0.3766403574787209,0.6606434344838366,0.8665231702198897,0.8953639164111016,0.7041732229727324,0.3318081465975635,-0.11552232132635043,-0.5127460006732115,-0.7698760441345792,-0.860518662377356,-0.8147411430608134,-0.6891669375484858,-0.5360802885741506,-0.3878838025612674,-0.25881754804612744,-0.1537833733012378,-0.07448090925640558,-0.02062635009470777,0.011098550112713088,0.02696251389239865,0.034003914546101,0.037965208837429675,0.042672937073231096,0.049637383118669394,0.057590267192506824,0.0631036456744541,0.06275773876720872,0.05608998766828794,0.046602678513511867,0.038964151545976135,0.03547464859694477,0.03529445964722962,0.03556700750525561,0.03307522403801175,0.026319709393471433,0.016473830489121495,0.006127842562642478,-0.002577356110797154,-0.008969510152918227,-0.013814940788883597,-0.018314032545781237,-0.02295755454595713,-0.027023163211020988,-0.028920167710997285,-0.02763321627181143,-0.02416334867732564,-0.020892352109859885,-0.019408604415008343,-0.019363323287568207,-0.019005990017442728,-0.016281349466952477,-0.010063979866563046,-0.0009474191892178585,0.00953755387262412,0.02038641089405172,0.0316196419982975,0.0439453059140908,0.05797429106149498,0.07324150708662219,0.08818983020072993,0.10142541679574607,0.11285581996106288,0.12369411739676578,0.13548432255254914,0.14876944263397318,0.16238723705648064,0.17430702861030847,0.18291320693294744,0.18703659660954514,0.18584910913343966,0.17965108768149854,0.16992637282187356,0.158043197906854,0.14412872853666722,0.12712034205699801,0.10566582818017177,0.07902593159714494,0.04762243203631318,0.013282831807714099,-0.02134883150511214,-0.05411080130094621,-0.08369717325581513,-0.10876167421920657,-0.12750119244759028,-0.13846712782798698,-0.1416744844925062,-0.1391746647135545,-0.13447331555784608,-0.1306508886154846,-0.128670950420479,-0.12734641560487342,-0.12447563078505908,-0.11836011757148687,-0.1091539875830827,-0.09882955387476122,-0.08958709160316769,-0.08235649893309457,-0.07653915013901702,-0.0707787900331967,-0.06439185165265895,-0.05804821968072007,-0.05253190572073196,-0.04744242822526565,-0.041567728886040926,-0.03413773334331257,-0.02548538290355372,-0.016612808620786765,-0.008627524066182096,-0.0025436835748941927,0.0011795691299429402,0.003011798149829199,0.003966848865411926,0.005167848098066554,0.007723956589023546,0.01221703309936542,0
0.004684583953599073,0.004558192472605231,0.0017825815300624667,-0.0037897367413548006,-0.012175095406963701,-0.02275848877076175,-0.033880229958436446,-0.04297569173077173,-0.04679259683520057,-0.04214086192163893,-0.028185375414166984,-0.008368148004405659,0.010924312636516297,0.024060166215011138,0.028928046642717913,0.027342715366078914,0.023606518167501197,0.021881652573124057,0.023814778767049592,0.028322711030762573,0.03306997871458008,0.035697397901252446,0.03475692085493625,0.030687536172402347,0.025571075447114087,0.021208082595459764,0.017322639276108193,0.012035130487366994,0.004012890879176908,-0.006620419549183859,-0.018949842042477957,-0.03137760455938642,-0.041549895130272595,-0.047328270343255804,-0.047514693376704935,-0.04148108121474861,-0.02912514750353021,-0.012272201325145424,0.0034029092307277867,0.008144444666412627,-0.009328924172507318,-0.05736648209989686,-0.13497496629229094,-0.22284236689416095,-0.27705203258186406,-0.23646927279095536,-0.049690069757351865,0.2871288050791997,0.7036876363034956,1.0641176930182898,1.219156550802118,1.080493644811519,0.6722858267815517,0.12403333724808684,-0.39206923391255416,-0.740205930332698,-0.871061365932418,-0.820680858263362,-0.6691263544995242,-0.49203311596743143,-0.3345570200311891,-0.2127197173400744,-0.1268548017312207,-0.07211705802785331,-0.04187820116157655,-0.02749369458723921,-0.019391005347083438,-0.010555956887351906,0.0008707794064413514,0.012376917155851156,0.02029708446349513,0.022917083067605933,0.021458309248535246,0.018677339732747426,0.016745052010152008,0.016373730810588166,0.01715575797404249,0.018078125736480825,0.017839164512946246,0.01533312941329202,0.01044548324087417,0.004090981412650867,-0.00230483100363979,-0.007227020582815161,-0.010239032094843833,-0.012471379794091407,-0.014998393284389702,-0.01760421185219096,-0.01956597301775094,-0.020825332405778836,-0.021812385880761148,-0.022693281946203337,-0.02368731580938778,-0.02523336344541231,-0.02686909286424341,-0.026878732117267757,-0.023849963000649708,-0.018086564141357044,-0.010994905848858358,-0.003627090792212972,0.003774138307888404,0.01149596510720487,0.020119918726979644,0.03015493220945344,0.04153169943366779,0.05375024671180618,0.06665682439365515,0.08078634525817611,0.09663463534281844,0.11332641255307312,0.1284240658203109,0.13954947259947562,0.14592803039793528,0.1484677944440398,0.14906818134270042,0.14995766156024345,0.15265626474035632,0.15654787709023185,0.15869707823894497,0.1556146620198448,0.1452044465782439,0.1273331460107566,0.10328685677366628,0.07492843391841841,0.04438265153368301,0.01452411306635282,-0.011349394402387226,-0.03156841042653016,-0.04742693747988774,-0.06202054570383337,-0.07785615881974603,-0.09494366442694457,-0.11048680019699604,-0.12056988183150655,-0.12306245231394304,-0.11938121889891767,-0.11311612002624269,-0.1073591889303309,-0.10349766648617659,-0.10130612541774196,-0.09948520835220112,-0.09645624592512432,-0.09118780480548307,-0.08374319646053052,-0.07514480610359964,-0.06663400103288619,-0.059027927269688606,-0.052386383329453244,-0.0460407820722788,-0.03938117901495049,-0.03259631008031905,-0.026511902247823908,-0.021911855608641576,-0.018758795869759273,-0.015914545335343852,-0.011736966178444183,-0.005226477750560839,0.0029053562514789067,0.010356225135146611,0.01510839419203446,0.017182557717743713,0.018052187778383213,0
-0.0027925203777423506,-0.00295974367064687,-0.0022447737190367245,-0.0015710630723585392,-0.002976665281779696,-0.007780545924016946,-0.01513889702610361,-0.022488930456929925,-0.027232083079375635,-0.02789849995854876,-0.02369813718925395,-0.013912610005241424,0.001345468344732063,0.019697377377879948,0.03623096323494509,0.045625235166921525,0.04527332305684421,0.03651375979496612,0.023334831170888786,0.010373110032352563,0.0014621172975595885,-0.0012292836188794647,0.0022151423532677053,0.009262746383686932,0.01602053326266267,0.0190192726090897,0.016013049191733002,0.006090942628396891,-0.00980552456033997,-0.028560207235153675,-0.04567747989564208,-0.056880563264104796,-0.060052314526323106,-0.05680697910819089,-0.051816662584513284,-0.04895079375311535,-0.04749476170137033,-0.04299035478164756,-0.032415109746183036,-0.019562495840556835,-0.016916941193102924,-0.04159999527347021,-0.10489706878546927,-0.19855397814585254,-0.2842985858714031,-0.2965775473167382,-0.1679259719541772,0.1286631868539694,0.5449188571020067,0.9563364394549004,1.2057084621249912,1.1764938940095864,0.8562761356226873,0.34861443154545346,-0.17695542408162807,-0.5661952269528809,-0.7444719017879625,-0.7312512507554604,-0.6054473374521179,-0.45124260824603873,-0.320333602692098,-0.22651547790444465,-0.16175525615308406,-0.11422542846233422,-0.07714202818855459,-0.04810203046605289,-0.0256748115992068,-0.008801922298181525,0.0024640129749423506,0.008047599359091665,0.009576115916111606,0.010348897943415515,0.013422542644032854,0.019109698133543893,0.024286565342605006,0.024843078588720854,0.01910442873405062,0.009049759348518621,-0.0012784893711736082,-0.008543632468219023,-0.01197537288870559,-0.01312502948426845,-0.014028656834696932,-0.014787844234193808,-0.012470940448283016,-0.003960963417885781,0.009225499477579693,0.020164245178576113,0.021215091372804883,0.009638990509494523,-0.010250787497594433,-0.02983651668802384,-0.041718606950316574,-0.043239651320786714,-0.03607533569683223,-0.024240866058031146,-0.01201010332107244,-0.001971541753803152,0.005590425962504129,0.011542594607736068,0.016299126387606104,0.019211502773391464,0.0189807515194804,0.01470869583568565,0.007573777901270528,0.0017154515760147001,0.0023756218240331226,0.012159235429718371,0.029170483669501115,0.04893040443773664,0.06745733756584538,0.08281115890264705,0.09488537364816171,0.10386292059149826,0.10877567963550157,0.10803319060082184,0.10138768051472029,0.09116097501902037,0.08172777530305422,0.07753467515423373,0.08073272042758278,0.08981992543297715,0.09978101955460378,0.10400674621258651,0.09750772459914678,0.07903238715337721,0.050812397039919514,0.017288153828221367,-0.015892727118762617,-0.042779869255095665,-0.058707846806766405,-0.06255278782290072,-0.05824662711068024,-0.053656511404186535,-0.05615084046302232,-0.06755635938738598,-0.08276569109467699,-0.0931407114376116,-0.09222406859519366,-0.07992556917751222,-0.06252413017318323,-0.04867498409999292,-0.0442371089388921,-0.049175876396832116,-0.057988878329655755,-0.06324768058839905,-0.06025954967641398,-0.04971045295970561,-0.036469195257584304,-0.02582112066294471,-0.019977283793075683,-0.017197039356502006,-0.013906979778254315,-0.007734558605844887,0.0006483640076933913,0.00756689376635377,0.008843824005036362,0.0034411514630746185,-0.005614148647665733,-0.01387192786409806,-0.0185454177652125,-0.019780815661718323,0
-0.012720706288274063,-0.013160649499628642,-0.009852276341921835,-0.005394109382312135,-0.003910287495955511,-0.008362713561590773,-0.01825459125876482,-0.029490837847505235,-0.03634902243422386,-0.03451314801483036,-0.02358234791935077,-0.007245423080511429,0.008924296835179589,0.020578788280062498,0.026690066406763722,0.028840099427927358,0.02871308356240406,0.027116464030031727,0.024878710751656152,0.023215867682905726,0.023296438445196157,0.026042005938355078,0.03145137195742983,0.03718668106944037,0.0385812228048213,0.031439455251532085,0.015573890250968236,-0.004108685126017184,-0.02041897206602497,-0.028914424289428572,-0.0306223716437294,-0.03008831091488353,-0.030805903519902075,-0.03181523095982188,-0.028657533241649134,-0.017657294326215052,0.0005880859855649859,0.02044480040233429,0.033013214783950875,0.029639650972324134,0.005250305028262117,-0.040603831360561726,-0.10376330893771854,-0.17154112582454178,-0.2149913584705054,-0.1881150986006226,-0.04520491855065508,0.22620750217991217,0.5762428082418071,0.8926046564067751,1.0419031945520876,0.9367149628285332,0.5877109912083701,0.10387166545785881,-0.3609020149878488,-0.6801210511460254,-0.8033329383929338,-0.7586789958757932,-0.6176175727661548,-0.4509697026059203,-0.3032693510748039,-0.19138354575396144,-0.11525926848368348,-0.06794114189100561,-0.04032628824497143,-0.023015788371082986,-0.008872174468903662,0.004628343368663419,0.016253770091598226,0.02445968825476565,0.029456244232231716,0.032075746571420316,0.03250160979862145,0.0310285970115172,0.028665328293363584,0.026423384308391654,0.024523377105851663,0.022322770252488074,0.019240253357213292,0.015706579129440523,0.013035884598792055,0.012197512209421625,0.01227810203484986,0.01088548900660099,0.006581633326809918,-3.692219447323092e-05,-0.007452587735578199,-0.014139961414331964,-0.018680174936895902,-0.020453539735878448,-0.0203996806046099,-0.019899759725176495,-0.01899444937006807,-0.01672891294960354,-0.012601145489307315,-0.006948968431781234,-0.0011653778170308306,0.002077013132129141,0.0007337813732374932,-0.0038367848820576146,-0.007086651703725145,-0.004428131354162297,0.005381194580571725,0.01900544897295565,0.03087290551113549,0.03740636973705985,0.03943098046577914,0.040881584717029726,0.045480949569483,0.054275515631701604,0.06524259759297693,0.07521394452404856,0.08273707864852611,0.08875785639699701,0.09472426859000499,0.10076958813743143,0.1056840094015531,0.10846607534812137,0.10961768510940817,0.11028631735482737,0.11040684241522104,0.10809219729561649,0.10054046622445231,0.085988643784914,0.06554823939781577,0.04316882735574375,0.02341191178377744,0.008583142998367082,-0.002488439336138265,-0.012925510204551217,-0.024898048094331934,-0.038103390181307574,-0.050855538921130386,-0.06203815324406725,-0.07145133661666642,-0.07853243492449925,-0.08183347386846618,-0.08034110006637195,-0.07502059083865392,-0.06900540174274937,-0.06617340556005019,-0.06862857662207433,-0.07464449456713916,-0.07902587798301101,-0.07635947329243566,-0.06498136772090626,-0.048507563891014925,-0.03393223188723021,-0.027564701688518177,-0.03098791372059588,-0.03983615853751041,-0.046722850476965644,-0.0461233247278008,-0.03772977288660981,-0.025992619335499248,-0.016378724572168133,-0.011857966890148312,-0.011657409008918772,-0.012305928542851357,-0.01054580634298169,-0.005439570259998479,0.0019124422512879768,0
0.010798576809566657,-0.00018229454579422215,-0.01035597821093796,-0.019490683396795914,-0.030766440380271314,-0.04644478151666045,-0.06405103318248029,-0.07673728757404055,-0.07743583658576475,-0.06323173888099497,-0.03703032448506606,-0.006427914306142124,0.019681194743292912,0.03534299283094606,0.03983782091468987,0.03716657604481794,0.03349205690198201,0.03336068979132943,0.036907943358440304,0.04030712182220608,0.03923707480827377,0.03267412005461693,0.02374116147129192,0.016822952643473894,0.013662372302312455,0.012263934435656784,0.009516184823108845,0.004261983649940004,-0.002115808182683896,-0.007337362596021961,-0.010462886226473869,-0.012887423234669678,-0.016976067924298944,-0.023619420437552174,-0.03114724396960504,-0.03585814293766628,-0.03379063456984949,-0.023819496222136742,-0.010033173244586791,-0.001511567278718926,-0.009552340837496164,-0.04256334971305303,-0.09931322592522733,-0.16180484570102474,-0.19132761729769018,-0.1363631420265911,0.04184069579478455,0.33594857616125234,0.6737998988818467,0.9335861483692638,0.9949010784535732,0.8014590822743218,0.39653010390420534,-0.09320343751514129,-0.5172461286850958,-0.7696831012602182,-0.8266170950766875,-0.7352782254613464,-0.5714048529225486,-0.39819004495542193,-0.24942204063429108,-0.13522989621409673,-0.054317102283979096,-0.0017860497647909576,0.02784516025955966,0.04001056154788147,0.040401583145407184,0.03485585413447427,0.02808870680714792,0.02269109180620605,0.019881164099318588,0.020417622009821036,0.024156703528433018,0.029604058617558666,0.03427426442975684,0.03543274343268184,0.03151387663626569,0.02362937219049045,0.015527866229530379,0.011243935023539502,0.01150412660015816,0.012468706282041574,0.00915192255772908,0.00041988399023289505,-0.00949165405285272,-0.014286296493513862,-0.010840635580794043,-0.002139603025452794,0.00488488689088154,0.0050626424303950104,-0.000938294882979732,-0.007337927545501052,-0.007999112386101995,-0.0017103608442224799,0.006546368393419493,0.009341776140535444,0.002455008199469942,-0.011311923747361511,-0.023596126121251153,-0.026608406265615548,-0.018035269243828037,-0.0013341368190888103,0.017094577287850517,0.031810209659534065,0.04137775085513679,0.04849996089951654,0.0564139471065349,0.06477048760341012,0.06998086971521433,0.0691922052900404,0.06316719228369617,0.05647616493393469,0.05504897869644258,0.06187168241857713,0.07455907057659131,0.0872058586912352,0.09478054592838597,0.09668372792800244,0.0960889843938756,0.09577978833218716,0.09558511494712918,0.09325097223309653,0.08643638711365459,0.07420251764753705,0.057101214800992305,0.03628774017725143,0.013276569209119668,-0.009807750555149253,-0.030296028827741826,-0.0457994910903817,-0.055764801877557356,-0.061891670683465294,-0.06634318184457302,-0.06956342069090893,-0.070227252692551,-0.06770704246165597,-0.06390198160066801,-0.06186714891699566,-0.06327955311743161,-0.06719698727421441,-0.07029340441342417,-0.06889578307142045,-0.06199466852755564,-0.05230362173497271,-0.04432510753642727,-0.04122682046683625,-0.042743665926006556,-0.04583946430290532,-0.047305369175782055,-0.04526393727539935,-0.03914294833742215,-0.029785381756482977,-0.019504795536678526,-0.01110989565953864,-0.006211367402094143,-0.004151618965177828,-0.002654329476438483,0.00048087747342721865,0.005851183786658269,0.011722160152823574,0.014973595808974007,0.013506380090652784,0
-0.006584510904530822,-0.009175700460963623,-0.012545744180758581,-0.016853465651504373,-0.022278278540111857,-0.028652450885195867,-0.035076888239049586,-0.03919369424014895,-0.037429666634153105,-0.027325183890495264,-0.010122937271153659,0.009358499434551321,0.02545534613457035,0.03423097231468519,0.03474537972285551,0.02956614802826145,0.02396861928137151,0.022986114380531796,0.028032978769320174,0.03624939788429072,0.04300570216019772,0.044860095075397635,0.04066930342841653,0.03126725507547878,0.018994807667739786,0.006736307000992867,-0.0037914000580963466,-0.012731069882126148,-0.020742806609483504,-0.027440225890279335,-0.03131637708144695,-0.030851346729203033,-0.025994561021152662,-0.018807305253985496,-0.01208860080720091,-0.007190733933556464,-0.0034748467173020014,0.0001776374162746606,0.00349413631943676,0.0038819610711222753,-0.003571250687642109,-0.024378963564612263,-0.0595047958748599,-0.09749428666511087,-0.10874794506916129,-0.049883782462942575,0.11592790844433426,0.38785585180237536,0.7049052598448825,0.9545038630348389,1.0183499152135753,0.8346082017314393,0.43762833885928487,-0.053998332446118895,-0.49510030158440943,-0.7804941269399241,-0.881045589039717,-0.8337541901345669,-0.702947657550797,-0.544293685161653,-0.3906306908106904,-0.2567841666340879,-0.149415032702666,-0.07150097969256727,-0.02128458179236637,0.0080725876003645,0.02509529207052806,0.035960635529713576,0.04293036143907154,0.045379147600824656,0.04255538799012491,0.0359810458999677,0.029007264297981037,0.02463226483529167,0.024190252248823204,0.027035939484717487,0.030945327085515006,0.03340823211401939,0.03304029198405249,0.03016805206521102,0.02624011489929448,0.022245312864300832,0.01763845952202226,0.01146789051976106,0.004342887978676857,-0.0014407289859638336,-0.0037053632590412933,-0.0022520170260970944,0.0008426749594479385,0.0025471677730878745,0.0007455978692170375,-0.004462699017210241,-0.011011772390507577,-0.0164991129364602,-0.0196574776928417,-0.020364331517049923,-0.018725291655058242,-0.014971657741801397,-0.010064446095215543,-0.005349054606071535,-0.001541722428052348,0.0015107258374177305,0.004756154862912055,0.009929484816128998,0.018564740753689954,0.030849162173586502,0.045661759675626454,0.06145575849574564,0.07732613273570042,0.0930685853775079,0.10814587742558114,0.12110354687675481,0.12998113539547762,0.1336295024219401,0.13313366643652536,0.13155706914295692,0.13200029057363857,0.13566705639867999,0.14103503339535317,0.1445715705253059,0.1426387619141148,0.13315280647938604,0.11602352445266197,0.0927661552234757,0.06584511220308199,0.037970292539378364,0.011567781410769563,-0.011452274412013082,-0.02988950248067808,-0.04387559048754906,-0.055212513598795476,-0.0663411400984879,-0.07871978790865072,-0.09203054191120251,-0.10478567957036813,-0.11570685134685346,-0.12426459433610783,-0.1298990317428442,-0.13125249021303498,-0.12678170895251492,-0.11631828540811594,-0.101844856218863,-0.08692126565969449,-0.07521622206548569,-0.06851069675097737,-0.06548049457328066,-0.06278860439650179,-0.057941457271238006,-0.051100702784529536,-0.043850411653677895,-0.03711736677291234,-0.031076880399796388,-0.025577893852094205,-0.01977486995731854,-0.012681220510721493,-0.0043955303334005675,0.0038268424901456693,0.010398713109967202,0.014236322119614144,0.015272408450441392,0.014354124230399308,0.012777206915133316,0
0.010157772387763157,0.006561417838319956,-0.0021872252485672468,-0.013993138095755704,-0.025130735230057016,-0.03160040430528649,-0.030259841581798525,-0.02001707783724704,-0.002369506694578366,0.019031956007573243,0.039225943227029034,0.05320941667589013,0.05730623153782666,0.050266681321773796,0.03438561711470849,0.015902918552908877,0.0029168624206128563,0.0009309922548171529,0.0093715903158594,0.02206291714725815,0.031044924943694693,0.030976781985259834,0.021643804480128596,0.00746319421562793,-0.005602604985288808,-0.013953409938475981,-0.018384402572678038,-0.022816051950188015,-0.03087312251501984,-0.04279548062603706,-0.05476217960791434,-0.06099753627124159,-0.05751864856804409,-0.04521253128535332,-0.02922305935453022,-0.014897009656744044,-0.004559504677861518,0.0024314495463423507,0.00723527046233327,0.008418852024577645,0.0003358312030485762,-0.024753851392231067,-0.06987875764240893,-0.12381376452739269,-0.15414557753620703,-0.11187714991865057,0.045189724295357975,0.3172981080478963,0.6396065476425958,0.8945763326603655,0.9625008449940264,0.7850355668693033,0.4016837945470155,-0.06641853180162832,-0.47602190937473415,-0.7278799093230586,-0.8004359234464307,-0.7365934658432025,-0.6030515707053715,-0.45434682728122755,-0.3196532271948083,-0.20925479974861771,-0.12583026888534213,-0.06942030672109696,-0.036360876882833515,-0.018710811682070134,-0.007549893274367916,0.003084465323143451,0.015012027157076675,0.02702920658173115,0.037087720042115246,0.04405962443252995,0.04798191520658779,0.04943195920678464,0.04927131424769549,0.04916991016616626,0.0514168003977796,0.05701335766709921,0.06405555692204651,0.06818834834914828,0.06478136698733059,0.051533685782842314,0.029671608149967714,0.0032132982215543216,-0.021749133201683455,-0.036930447935610934,-0.03405419104119436,-0.01098557792050254,0.023744532063124987,0.05382200124332796,0.06364777140729144,0.04699991777778108,0.011081091509684424,-0.027470069776632303,-0.052835022441658226,-0.059004750117465754,-0.05107349921928568,-0.03918229970151965,-0.030677617044995928,-0.02577911577951849,-0.018595038197199286,-0.0024294647471680892,0.024034597581681794,0.054289516707584654,0.07745025768665657,0.0858397371988272,0.08137506301190175,0.07447085483141767,0.07555320402512465,0.08689066865445681,0.1020618548402833,0.1129380625401686,0.11662475247380763,0.11619174828378054,0.11665590219025469,0.12030397327314239,0.12445143151006155,0.12395049866517305,0.11643906556974852,0.10466066120235268,0.09351209221926236,0.08520682509558448,0.07757687556666876,0.06678746388722986,0.0513239635409905,0.03339129409323116,0.01603405470015284,-0.0008506306916903732,-0.02050331889402391,-0.04569582627475003,-0.07542954865795314,-0.10420506915764573,-0.12488426127320212,-0.13342504047273782,-0.13127334538818775,-0.12384176254932294,-0.11701804590632967,-0.1138629178145318,-0.11315098959289038,-0.11096379864395112,-0.10406358012319813,-0.09213596399186777,-0.07769576138501762,-0.0643364564681691,-0.054742802298864586,-0.049360389978868484,-0.045838243809938624,-0.04018941392983121,-0.029739914170440994,-0.015527733861818877,-0.0022905555725295304,0.004149132118270525,0.0008992306444389874,-0.009636751606049073,-0.021005603625416383,-0.02603152858688649,-0.01997389801058821,-0.0026899340736969684,0.020373214974478082,0.039795736655358044,0.04757590290330674,0.04257152734261551,0
0.023027682161504973,0.04436026738020755,0.054698688869806625,0.046143119334082744,0.01647234171506092,-0.027117444579683174,-0.06938248206318956,-0.09321261362829962,-0.08700937901993293,-0.05091777694499085,0.001708231658967484,0.05059223583636182,0.07877153200700933,0.07977949286302205,0.058901586988315276,0.029716914983833165,0.007688940184027001,0.002803550546705911,0.015312512654184873,0.037605763506111056,0.059624432784997204,0.07305993718775099,0.07306812121668589,0.05872358060132506,0.032648115472646115,0.00026107613120164726,-0.030772168858440547,-0.05217729073080657,-0.05851813051372856,-0.05056079656920884,-0.035573075027575334,-0.022900746978058127,-0.017973096704194128,-0.019818381909315553,-0.023019220282237556,-0.021951738123895444,-0.014353030149966197,-0.0018717876822465554,0.011253241560963242,0.018497973877145777,0.010445571536747024,-0.023746435286590446,-0.08987557853006896,-0.17764105416878317,-0.2515137741060295,-0.25390281643150436,-0.12801422766224024,0.14493895982663027,0.5153093700971065,0.8661987501718347,1.0572791922409008,0.9937585214218168,0.6784745263910937,0.21279543961208847,-0.2532690580329871,-0.5906940289435895,-0.7414399988676029,-0.7250369019190653,-0.6073010198845069,-0.45838504551386783,-0.32555141733547954,-0.22748261211047688,-0.16193825392221045,-0.11696441228620254,-0.07980985415828952,-0.041796349380083406,-0.0007962736250183219,0.03810864657923593,0.06552975672144037,0.0737561368393024,0.06185229800016321,0.03669298756072076,0.009831606754384995,-0.007951356284413635,-0.011597792097264173,-0.0036976209655945336,0.007568850643154722,0.013431228363768713,0.009732927816600838,-0.0011946118075018622,-0.013279024776133906,-0.021179969046331522,-0.022760053959050876,-0.018457736489574484,-0.009802417878195545,0.00043729407580799136,0.007724138178453306,0.007083611517771175,-0.004241468702597111,-0.024654662730129343,-0.047957229012535595,-0.06585155299670885,-0.07246032263711648,-0.067721456704541,-0.05682236060454554,-0.046367769812816366,-0.04062651781316318,-0.039745042233147884,-0.039877569970184636,-0.035299470168100144,-0.021870006021842258,-0.0002473508321242353,0.023587150788064466,0.04226499844102506,0.05276984142028696,0.058475591696318364,0.06561432963064763,0.07827426755767582,0.09650345968037474,0.11746638958791189,0.13721605891898175,0.15223025710226576,0.1609785507129897,0.16450503646375284,0.16535681823464118,0.16639400681806274,0.17015174955846438,0.17772822182484735,0.18726576089471883,0.19344126303008358,0.1895965284445875,0.1722942021464848,0.14442820139457266,0.11337001551443904,0.085484598215372,0.06169468593825743,0.038231296555486016,0.011645288716327702,-0.017593223626602338,-0.04593484478173791,-0.069832664825489,-0.08787487084898918,-0.10039644967110478,-0.10792764371751282,-0.11133287805866104,-0.11316923631792211,-0.11729542206267969,-0.12602488316805674,-0.1368244566914982,-0.142153610676545,-0.13492571275852028,-0.11576437304218858,-0.09433746353118753,-0.08274076363056314,-0.08674897349900511,-0.10168423186209982,-0.11517705783771663,-0.11485312530477752,-0.09647730559444773,-0.06704224381739206,-0.040209014668805984,-0.027371591827551438,-0.030692483607495488,-0.04238963654771114,-0.05002200090531655,-0.044491643173739076,-0.026017672777985234,-0.0036346642760008412,0.01159253639876158,0.014175629004508201,0.007073971223954957,-0.0014132771404562969,0
0.10378330588197929,0.08922181100901773,0.077251601257767,0.07259380403457336,0.07496738971663339,0.08047602192467937,0.0840228111673434,0.08192154804438746,0.07360460886379151,0.061528865811288316,0.05035236388293096,0.046304576704164685,0.05473942349196129,0.0753614479407409,0.09982531737660669,0.11546659556368405,0.11303778593082218,0.09279279279581204,0.06404171115815532,0.03873122084900299,0.024633336007115557,0.022296363215227703,0.026419786195029393,0.030119818619128026,0.028316287694715038,0.018099902591698507,-0.0014794989478539647,-0.028185203913172103,-0.05586208168506643,-0.07630340419108819,-0.08323718525651193,-0.07587131078171414,-0.058742243664092836,-0.03789474792395487,-0.016930379774485096,0.004377828470337665,0.028129912847611738,0.05477209697162056,0.08099384937845058,0.09957373836743125,0.10064421350542506,0.07471297549737149,0.018188658275325988,-0.05876180570211002,-0.12557206071126237,-0.13321922137552847,-0.03301071903056061,0.1893982353083671,0.48500661320627125,0.7440324044295736,0.8394129236225389,0.6919198280691111,0.3181186160813683,-0.171917125285456,-0.6286712522306378,-0.9344042441236794,-1.0468713217297911,-0.9949079894356965,-0.8407201954336766,-0.6422974136340343,-0.4393760466257998,-0.2606992724404257,-0.13444773594048962,-0.08733393045918084,-0.13086499938924637,-0.24639684376756904,-0.38489335546790043,-0.4862503466938659,-0.5067970772510214,-0.43731424566464305,-0.30187687279693715,-0.14135102674589967,0.00718796554356288,0.12373105857298967,0.20553420148271917,0.25898675983288505,0.2926005552495232,0.31415415951608444,0.3302692875823253,0.34670873416399417,0.3667611861946146,0.3882441392110333,0.40338446148795065,0.4029737474144748,0.38191606971746267,0.34203203176645336,0.29091714139214586,0.23832934809625259,0.1913763866062222,0.15163696298637103,0.11649286624208155,0.08211776674782938,0.04609719661787507,0.009599837344048755,-0.02287300976125952,-0.046760905232954585,-0.06029167755764446,-0.06458031374804415,-0.062305115133831274,-0.056157076329913354,-0.04743511742743448,-0.0360185714824272,-0.021653748068693603,-0.004796162505254806,0.013484092736602931,0.031585319598414235,0.04755167308240082,0.06024305012262211,0.07029059377493473,0.079012575221053,0.08645111615495983,0.09109917524590326,0.09150531551970534,0.08780803372626753,0.08175856530618762,0.07543575376772846,0.07022508599723676,0.0667694356751204,0.0650918439851435,0.06462945241013701,0.06403171178747569,0.060803260441524745,0.05186874643790555,0.03493973200415958,0.009586618715387334,-0.021995619436525147,-0.05474125356523092,-0.08245641501502926,-0.10143727830422042,-0.112479310134315,-0.11905786356402545,-0.12403525136281822,-0.12803858888374675,-0.13020546917645145,-0.12993780169071997,-0.12810992494526555,-0.12687606239665614,-0.1278947750787326,-0.13051590469112154,-0.13183533313251958,-0.1286437030540524,-0.11981183806085981,-0.10714468952557481,-0.09408403543966143,-0.08329380882579462,-0.07474731832994067,-0.06615287209047836,-0.05526271609293049,-0.04164152294413819,-0.027054946699987484,-0.014747317619610099,-0.00749552099141618,-0.005301690944160137,-0.005312986964496114,-0.0045352248089811364,-0.0018104110578197746,0.002863713213602362,0.009486210360369625,0.018388109224705802,0.030446910121800022,0.04692849015850632,0.06819976118901055,0
-0.014635233668785844,-0.017289569002378796,-0.011136069193057355,0.0061458820983207926,0.030346694318124035,0.0540932846221617,0.07289466787061304,0.08804355251390564,0.10499289849704757,0.13056731470863273,0.17078480386348624,0.2280063198082182,0.2967013435109557,0.36128232771051333,0.4005999101579769,0.39801191346730314,0.3511554571967471,0.2755153236173106,0.1980235586899502,0.14307034226680815,0.11977813384162483,0.11861432408393127,0.11925735696424355,0.10433144393404009,0.06905553470364452,0.020715723894637376,-0.029071369192172306,-0.0718879386512165,-0.10534654305551998,-0.13192383373051086,-0.15614080718127984,-0.1812708244716798,-0.20694239484802707,-0.22905055797449417,-0.24172372942646725,-0.24038840022407584,-0.22463180871662608,-0.1996690489874676,-0.17651093996423411,-0.17012651707403442,-0.19461298541997363,-0.25680020420936633,-0.3488209827551136,-0.43864780146717636,-0.4646869555604543,-0.3488991610862921,-0.035990342291173774,0.4556157153647395,1.00580563076932,1.421462074094275,1.521964987353623,1.2361897680334313,0.6484255679101127,-0.03981723563705111,-0.6099595850461524,-0.9264264035933529,-0.9786716741853989,-0.8506628559568504,-0.651967473768984,-0.4614869857110403,-0.3111840788678729,-0.20107519207731445,-0.12126157660732705,-0.06454762725764507,-0.02743966650772335,-0.0061306631705190275,0.005436544406342773,0.01338729905106504,0.020722745082703248,0.02679616910290953,0.02967027486597929,0.028736452191861085,0.025320101473543553,0.021671709442271838,0.019924379079910473,0.021066990894458022,0.0241628911460401,0.027182785958578662,0.028589134279049182,0.027718500811883814,0.024638374289573804,0.02031555756563315,0.016330316051613617,0.013924530235995231,0.012939216960374481,0.011899556342119111,0.009998079153441012,0.008648647770271932,0.01016335186548752,0.015328489164125424,0.022957251827776103,0.03116347081165876,0.0383421765178109,0.04336693547768512,0.045460581332760555,0.0442793135648949,0.04042823701020277,0.03539181381464015,0.030486431176350727,0.026157470535387965,0.0223118032940509,0.019099900855281945,0.017434529718715987,0.018938956308597283,0.02541470704438273,0.03777941506616476,0.05472770315844752,0.0721448472988647,0.08460672782159791,0.08901827780929567,0.0870739998503157,0.08374261067705324,0.08374502614217613,0.08890580209882334,0.09762679942687646,0.1065574701617584,0.11313119759868036,0.11752754607732076,0.1224631699581152,0.1301679317463036,0.1389957376609257,0.14284657847909926,0.1341974053536839,0.10870374784556638,0.06838264360049874,0.02130911039892154,-0.02218164377006274,-0.054212143922589544,-0.07260285106914255,-0.08140490918942514,-0.08770098670779565,-0.09673189814603947,-0.1093900935292108,-0.12288303339948971,-0.1328628550084772,-0.13573158167175797,-0.13071347322661975,-0.12131679697041689,-0.11482768856974856,-0.1186609959182183,-0.13479474631593905,-0.1565438163812086,-0.17170071160652853,-0.1704353512869394,-0.15139018029097284,-0.12160656207428061,-0.09164049645202466,-0.06994420793540959,-0.05961945125665062,-0.05835892039953085,-0.06051962585572678,-0.059720626088118754,-0.05125788222821015,-0.03404956208383894,-0.011072336473990075,0.01197059116935301,0.029148957954543392,0.03805504306971664,0.04278354221901371,0.0516214552901801,0.06934582005047406,0.09145142415037177,0
0.03683686465766762,0.012837232058944287,-0.010713362137058606,-0.026228838838816864,-0.03108107753403708,-0.02923695607443956,-0.02803503017769145,-0.03226893282483858,-0.04032860059210239,-0.04494630952022577,-0.03834514272213732,-0.01884247822780801,0.006410064213498649,0.025442891909384754,0.029345299912675413,0.018077823067816683,0.00016289794528239615,-0.013326583150324908,-0.016063516531654366,-0.009838338143227545,-0.0020212016182825196,-0.00011373158310169166,-0.00806070600224668,-0.025689051337858468,-0.04986796819288671,-0.07579079482021853,-0.09802357536060194,-0.1125176549510501,-0.11865144280037887,-0.11901362036361873,-0.11765768526281434,-0.11802565433655096,-0.12067247744139442,-0.12219311757961665,-0.11715401673841563,-0.10185428316184375,-0.07592245628375015,-0.04147348919560066,-0.0034691038433660847,0.029133924023968184,0.0445035708127315,0.03180608009678669,-0.012041771938677386,-0.07347699492576845,-0.11621608240174378,-0.0856929224545735,0.0703501767083574,0.36830146788062035,0.7584542796676836,1.122624118502132,1.3148561161048034,1.2314429547922083,0.8698420163482734,0.33698452851430416,-0.20135664529870603,-0.5993218920799201,-0.7902375185922671,-0.7949895442556378,-0.6841030439295794,-0.527639811300378,-0.3675324653376787,-0.22090617753179595,-0.09710072086485567,-0.007892835156305218,0.03571890335335724,0.033332447716780234,0.0004878500208922564,-0.03664875105310578,-0.055294923290558046,-0.05019264323334784,-0.03752922334333594,-0.04470709772284717,-0.09153599081227272,-0.17380921387906512,-0.2604899492115815,-0.3085962369239906,-0.2876047304816903,-0.19735927714187387,-0.06749971525511878,0.06013865222761963,0.15353502242681127,0.20274208084191742,0.21633011225788318,0.20842397364366666,0.1886604752955024,0.16135350530534756,0.12988729610605365,0.09915142977050018,0.07373778303933567,0.054575713410437446,0.037959745234745164,0.018662858272029074,-0.005817873402734545,-0.033643910966833016,-0.06032512231323851,-0.08223543589516699,-0.09871407434201324,-0.11020466165680218,-0.11462947755453463,-0.1069667516908007,-0.0834338603093118,-0.04617208332790891,-0.0032146437081904777,0.0372443847838497,0.07331636665747454,0.11002542625220593,0.15286359313395567,0.19989333351442154,0.23940086554742113,0.25592295885081146,0.2403817238640895,0.1959835568808544,0.13599341971047746,0.07621675171503786,0.027053704393847744,-0.010183883883955715,-0.039976002641061284,-0.0652181491767777,-0.0828999332570526,-0.08706859834638307,-0.0761025252225255,-0.05719383637765288,-0.04357176498393994,-0.04641015630295426,-0.06756384779672533,-0.09817265946843562,-0.12370944382882967,-0.13225280888973603,-0.1213873787961441,-0.09940648773023016,-0.07887524578758476,-0.06683581437301375,-0.060355602767663684,-0.051535025203815275,-0.0375525557590796,-0.0266571163316038,-0.03329726010821468,-0.0654164192670272,-0.11583872150904236,-0.16610332644676926,-0.19900566725638508,-0.2085743364563946,-0.19911909999403507,-0.1762053980466151,-0.14039229890151234,-0.08925798514269591,-0.023348259822504224,0.05036556068366526,0.11984340264334989,0.17349618411439321,0.206774706662852,0.22369529368989122,0.2314597060661666,0.23431244621657854,0.23241446456673567,0.22503066046225279,0.21253481112067474,0.19463578958904246,0.16887789171262338,0.13272845223679453,0.08742184644315466,0.04034381710267284,0
-0.013193257253925221,-0.011725990085145892,-0.011369762652378696,-0.013991520930974572,-0.02047118054532448,-0.029916771325722746,-0.03958727928418894,-0.04555870924046939,-0.044373281730623965,-0.03522732768407594,-0.020840598027188406,-0.006321676629548706,0.0036472389441148576,0.007977998288268118,0.00971539456257766,0.013092521012463547,0.020006226636148268,0.029026773485580016,0.036940333282010074,0.04087267665306009,0.03984486684980807,0.03521304440576857,0.02959388946701863,0.024779130932724058,0.020249836848162388,0.014091487507322517,0.0056257509860264485,-0.003653571982425726,-0.011794052191098157,-0.017654117994084347,-0.02044858808905074,-0.02002383445954753,-0.018348347873094813,-0.019186983513805447,-0.025057035935478925,-0.03429266496188984,-0.040964127561370876,-0.038492399694538784,-0.02557556901143674,-0.010947137298653499,-0.012609351717018191,-0.048969372593225736,-0.1248472318074714,-0.21900014754224362,-0.27986297477027844,-0.2377941298515895,-0.037750672531356014,0.31935439363776286,0.7513065212872515,1.1090640970298318,1.2373451141690766,1.0549049380656301,0.6040636320568856,0.033859289291350916,-0.4736813133526341,-0.7878875978581242,-0.8756039890013392,-0.7899630314591077,-0.6204196470530486,-0.44199729413807887,-0.2924339990816917,-0.17907683173553463,-0.09708291153434002,-0.04119728331898289,-0.007514323183324071,0.008189064547215411,0.010976626017838578,0.006559349229072878,0.0007851073507727548,-0.0014854895894761896,0.0026051136851249247,0.013214802879661435,0.02704215707038294,0.03818699892013873,0.04164401189030476,0.03610120264226827,0.023558373923758123,0.007956166045894844,-0.005837106328463777,-0.014002747333465378,-0.015897953469856563,-0.014078060629678391,-0.01219228621004518,-0.01243295732239129,-0.014437066271864292,-0.01625962177506561,-0.016350081346833592,-0.015431971653725358,-0.01662605433541419,-0.022401771874113168,-0.031209049745794953,-0.03811670393816274,-0.03870753551993883,-0.0322637737358807,-0.022300657638565893,-0.014481870700558869,-0.012462717112012769,-0.014589816053146494,-0.015250005126811137,-0.00947701548707223,0.0038453134813733495,0.02172201447439675,0.038690298429704076,0.049954197853307604,0.05494677258295265,0.058106240039468765,0.06539812277989276,0.07931851655433958,0.09686891744487094,0.11225315279810212,0.12108879974616404,0.12280717817995457,0.12072090885471422,0.1196078751167091,0.1221274144572748,0.12735583510784115,0.13223675045829242,0.13374097928179715,0.13025128912935782,0.12205276327501324,0.1109987354025539,0.09921696703760839,0.08724140448986191,0.0731910116072663,0.054037869555080664,0.028059974356351054,-0.0028857502061326104,-0.033087255693949685,-0.05613087118825743,-0.06926963855279547,-0.07502238600054914,-0.07870814908496068,-0.08416952121349416,-0.09143368024980583,-0.09773310440085967,-0.10019373845783343,-0.0982020649237575,-0.09401417672327342,-0.09095740564257257,-0.09063517488224652,-0.09143331640064348,-0.08945048547611736,-0.08148052885432017,-0.06806797935390826,-0.05390804850655104,-0.04475084778142187,-0.04318845545282323,-0.04675673261977987,-0.04979303784654639,-0.04746176287459782,-0.03860911067703243,-0.025613187744000693,-0.012325995096001751,-0.0020821359548198054,0.003276894430013097,0.0037504339880291265,0.0010358784162482239,-0.0024471952527537477,-0.0045119353727722505,-0.0034943308134714104,0.0013551283634394822,0.009099075315849475,0
-0.019632629346116075,-0.01891273562039155,-0.017031716751659806,-0.016028694888410914,-0.017729210204897455,-0.0233495774334865,-0.03287679291402411,-0.043899720762308164,-0.05176950896303906,-0.05186922217057778,-0.04198268843349415,-0.023624266844168795,-0.001953304554686107,0.016644232761297128,0.028003322409847195,0.03164873505699802,0.029946492624506327,0.026724240476700703,0.025533658240530367,0.027738757266970615,0.03232428575698628,0.03741244723738665,0.04138866559266562,0.04293482110056176,0.04060512927119895,0.03312531058741267,0.02097589356524488,0.007007354455976854,-0.00542747957555491,-0.014298938011719473,-0.019059920451293497,-0.020310606222444114,-0.01923527955453455,-0.016952864764318752,-0.014590063170595517,-0.013126702263227041,-0.01231691713455291,-0.010349629431742148,-0.005582979874893788,0.00013279826273084917,-0.0008365186623382195,-0.019950133360787155,-0.06592252030867822,-0.1351183820769825,-0.20191232823123378,-0.2169649908082549,-0.12314369955815747,0.11134317536980504,0.4584439673726381,0.8184596725622808,1.0498978455581573,1.0353519398042885,0.7464180738795457,0.26523649999691556,-0.25239440461497215,-0.6511682350370174,-0.8440804697448874,-0.8357088653383453,-0.6953653812890094,-0.5073246624756782,-0.3323344936492239,-0.19703340233156258,-0.10402350571963559,-0.04586334730163995,-0.013502973920660508,0.001372306936016525,0.006598946051616372,0.00876053635709325,0.011369267385610535,0.014850563764954479,0.018626526366743102,0.022714063438690806,0.027488792298094724,0.03242012349623985,0.03568439254313058,0.03552848406708915,0.03183182960546055,0.025966333827987225,0.019366604532849843,0.012777209001152718,0.006735664026821908,0.00203497912046678,-0.000715288439893132,-0.0016640298466222454,-0.0017154225131625865,-0.002172880483372144,-0.0039022408329272232,-0.0068033977487528974,-0.010247163660592654,-0.013064452014226171,-0.013610979756272134,-0.011260468370821952,-0.0072396447429363565,-0.0033087105128118896,-0.0002899322735428053,0.0017632771057437052,0.002864380510270023,0.0033149315034160564,0.004084560200987325,0.00643012875480907,0.01113627973757427,0.018227304262437356,0.0272160986014819,0.037066021185623084,0.04623890559657359,0.053513913325702316,0.05866204308267789,0.06220558471934711,0.06493988065215561,0.06792935959058628,0.07215588284475512,0.07745935408171592,0.08240474833174605,0.08549825941337867,0.08618103908319388,0.08490129386688569,0.08259788289391878,0.079934286527103,0.07711157805508438,0.07436398954875312,0.0716766207735011,0.068143681664739,0.06274043528957746,0.055043625648725884,0.044695304284046,0.031431464709105385,0.0156956175579121,-0.0014968223469908372,-0.019034959277199004,-0.035658583170528446,-0.049797075917792484,-0.06010209178038639,-0.06616269073494002,-0.0688231610770936,-0.06994994584399293,-0.07155806067517022,-0.0747697757038147,-0.07902018849677564,-0.08211633805374471,-0.08155728808558209,-0.07623242834470802,-0.06718013356685652,-0.05688947756118501,-0.04777636874974171,-0.04103108598689755,-0.036725721915936795,-0.03461402666350589,-0.03407454700889703,-0.03369472003071858,-0.03204154232898441,-0.028536278027877948,-0.023261633693241163,-0.016906331701345634,-0.010768627075049487,-0.005642626568789916,-0.0012626092492904837,0.002329332483203137,0.004186640896367659,0.003921519341494066,0.0025574944373920362,0.0019349461583210176,0.003706876596645611,0
-0.010116706719988556,-0.014660243409073395,-0.0180778565252648,-0.020137169504538147,-0.02123330182554008,-0.022702279653311418,-0.02608844930406959,-0.031485924833810436,-0.036311709857269746,-0.036276211588772984,-0.02817173394392312,-0.012302736764240787,0.00696219971713468,0.02315427009810027,0.031102759977190704,0.029480091238539688,0.02158417172035569,0.013634210752197687,0.01058986544992422,0.013119294343344298,0.018596289553290818,0.023849272608919028,0.026800293064896594,0.02686080777800174,0.0240515867303968,0.017837105794466384,0.008036237033474534,-0.003361134406617066,-0.012809019616967293,-0.017790287472838166,-0.01815881371659682,-0.015313048399380249,-0.010912815361766668,-0.006316694360761647,-0.0026418537014957595,-0.000622993940640739,0.000425772338227973,0.0030324894928906157,0.009196509665429755,0.016786705477346665,0.01859847273365451,0.005161899669191351,-0.030062678801863033,-0.08388625345596082,-0.1358581916533538,-0.14528980802672226,-0.0630193914412932,0.13942041499277927,0.4381767837945025,0.7462847945622861,0.9395873189511624,0.914336943803302,0.6450866574230699,0.2046105401826454,-0.26870396147093645,-0.6368519927143517,-0.8217451285571171,-0.8246999585404109,-0.7030438410990362,-0.5284523789500044,-0.3550811362827595,-0.21021311522758274,-0.10163931703310958,-0.028093105315163586,0.01572688107854988,0.03831120327191889,0.04957812008525232,0.05710709510631231,0.06389904987168149,0.0698098478842644,0.0740543542709062,0.07614743540359574,0.0760746962004568,0.07435338685469003,0.07145339923327679,0.06744123214808934,0.06253066813106131,0.05730153116943108,0.05251684195226366,0.04934571166575135,0.04845888222743888,0.048113810884101466,0.04439780258839159,0.03372888383120711,0.015155585728512163,-0.008773091195869838,-0.03297281138895739,-0.052177582137677814,-0.06330055678148883,-0.06672030803111775,-0.06606725776806342,-0.06608802957006812,-0.06953943121691218,-0.07588697026998577,-0.08224280618216641,-0.08478806739414962,-0.08080359238136044,-0.07075308130885417,-0.05793386532341682,-0.046326082438835965,-0.03869358999918178,-0.03501952131137737,-0.03251677352097393,-0.027719832035333937,-0.018271023317209967,-0.0035196550748458934,0.015378384629030949,0.035934915943609355,0.05525923212793915,0.07098202389028883,0.08188108137068306,0.0878939821334466,0.08952186478218901,0.08744104177997539,0.08298135888034172,0.0783125123220788,0.0754460723591237,0.07517979494102874,0.07640696157688111,0.0762929020346069,0.07249038237404215,0.06550378215945332,0.058307222633134835,0.05384123506096328,0.052901630306870256,0.05349595897128699,0.05208865389619301,0.04658828725202667,0.0379004400642942,0.028151332702493724,0.018675797572182642,0.010099468594486943,0.003168809347168811,-0.001199794883215052,-0.0024464816472506146,-0.000889816066767796,0.0018949578762205242,0.0032653201627873777,0.0006118054372157948,-0.007085731926877862,-0.018283694588360527,-0.029468186356475946,-0.03720714719404732,-0.04009454899500189,-0.039004992381502804,-0.03570555977022661,-0.03153330972412603,-0.027294290838088063,-0.02330210352619223,-0.01921634695300522,-0.014928678188808211,-0.011566206839547361,-0.011148797049212065,-0.015485973680903447,-0.0247769860466313,-0.03655420770934158,-0.04638601655010522,-0.05009435561354583,-0.045710599508001465,-0.03430437624083528,-0.02000587748863656,-0.008948761100069863,0
-0.01008514713844344,-0.01047547784049832,-0.012652714801605446,-0.0184351611969032,-0.028993375199491425,-0.042216672382250374,-0.05143940703070474,-0.04847818281796366,-0.02941777652007158,0.0021261933860803922,0.036595528285837946,0.0630087941941148,0.07392302178868604,0.06869714985440001,0.05302710015278165,0.03483216902626475,0.019900265164450946,0.010842035409042059,0.008547359919588278,0.01265016519366405,0.02105641795040775,0.03076381447596401,0.03896419427740882,0.043071564236052656,0.04078564557591006,0.03088337641448301,0.014106427942329275,-0.0063475843991070095,-0.02498290625528886,-0.035369798124509584,-0.03266792610888707,-0.016473715562491675,0.007317391864636773,0.027624583248504798,0.033210163349149086,0.01957186639401687,-0.00727896030161265,-0.03362274836146757,-0.04555637983902684,-0.037140065393030344,-0.014659063379982403,0.006676892313163268,0.012161099360580276,-0.0021616406150676047,-0.021915824550396285,-0.0120918806491284,0.0730502722044693,0.26382055459381965,0.5441935030104794,0.8380331697823571,1.0283030809529143,1.0075838177685188,0.7360024194445397,0.2708587219387891,-0.2541049198937316,-0.689908223870805,-0.9375156980175646,-0.9794147753066632,-0.8657049428306425,-0.6733244411948905,-0.46838758532779545,-0.28992641387893536,-0.15305922281643997,-0.05896532897419869,-0.002247509491039877,0.025729043845152386,0.034571971129938144,0.03235275471437791,0.023352290356422657,0.006864207199840412,-0.02050783215634568,-0.058903918350659994,-0.10079483665395644,-0.13287475119708986,-0.14333800681846406,-0.129415323660431,-0.09979738147745694,-0.06908917082392607,-0.04729762524128678,-0.03293136765383101,-0.01570597839832057,0.013853967876324608,0.055601399836146606,0.0978110213100323,0.12358701953506263,0.12156616144650838,0.09340616607424271,0.05318874756738938,0.019801380124968373,0.007000060815010305,0.016607688596418316,0.0386426738674841,0.05729282199358542,0.058326428736042754,0.03502570655963261,-0.008649886735526507,-0.05865667297901468,-0.09597659646926102,-0.10541118333840838,-0.08363033482137056,-0.0416166946210308,0.0004106286228781394,0.0239032009347648,0.02246900527630328,0.004884608256237593,-0.011294477951638699,-0.010541241460751437,0.013056240037645338,0.054630108081773286,0.10239050746999077,0.14410086731930413,0.1726228835517337,0.18776964238807378,0.1950914374849814,0.2027748555262384,0.21701446338456448,0.23765392527716464,0.2574059019605092,0.2662993404636001,0.25816398450258093,0.2340084162621581,0.20051370099042876,0.16518567301849688,0.13172758648300925,0.09909774154232803,0.06420433366725263,0.025812209613230157,-0.01328121962373105,-0.0478221372537945,-0.0737359899513329,-0.09029447703919229,-0.0995863052942614,-0.10469944347100049,-0.10836895895261048,-0.11265097675141532,-0.11907832623198368,-0.1283113244946012,-0.13924912717233348,-0.14863173675101823,-0.15198737821135694,-0.14629065977005834,-0.13321272574753815,-0.11973469097071673,-0.11367325514223814,-0.11683564734591476,-0.12243623295623522,-0.11985572776649561,-0.10294256523798102,-0.07475591520866963,-0.04492434205882373,-0.023223432797299055,-0.015010112611519707,-0.019669747208117597,-0.031532811422871176,-0.043246465104188794,-0.04901991074740536,-0.04556608794789365,-0.03272112785616796,-0.014435515690646031,0.002309979456611471,0.010950939141455188,0.008658831502361842,0
0.01074609969487239,0.02811041363268425,0.024084227448312977,0.003241953955882792,-0.023136599837063766,-0.04390706106209841,-0.05167091319923404,-0.043865800319850795,-0.022753216622809637,0.005505124015812543,0.031841214620469335,0.04688897346916479,0.04669805576726242,0.036320658180800235,0.026048189168444216,0.02386179144789414,0.03041472888394841,0.03919268611975508,0.041613259228642285,0.03394407207369656,0.020693788111834182,0.01119988380917868,0.012464460143988195,0.02469009708942872,0.04213325207491657,0.05690332330979506,0.06275727933815674,0.057514835013953616,0.04307545332842295,0.023604273797011313,0.003874722314288905,-0.012192695113578945,-0.022973299603797515,-0.02930995242953275,-0.03284569835029776,-0.03352401431484021,-0.02895077227327005,-0.017494331291082882,-0.0035331070938776506,-0.0005108205123479049,-0.027037607438539692,-0.09531817470337074,-0.196976722931344,-0.29381404199676064,-0.32123979615928533,-0.21028650609544133,0.07412726608330279,0.4953895072045621,0.9347706273541196,1.2277666969679184,1.2377774374500636,0.9274298782078021,0.38380569813727533,-0.22002337466136185,-0.7057942115701699,-0.9657514033095816,-0.9926753425020514,-0.8564168106499509,-0.6515079494610894,-0.45158896968441153,-0.29202541424419026,-0.17758693041082574,-0.09886374450392345,-0.044595291231512596,-0.006691101042930598,0.01943134303173251,0.03607926042478886,0.044586441267818154,0.04590757346934036,0.040683255038185616,0.030236975391085025,0.018398754606775702,0.011423402024334884,0.014336857633473782,0.02621265435880458,0.03916792630308417,0.04285073551478462,0.03127120734518381,0.007714730908014344,-0.015487447713434715,-0.023941671002004103,-0.011117728279992505,0.017161997493205836,0.047688411388827366,0.06913270235131883,0.07764182762743194,0.07599209799775512,0.06918478980349563,0.06104761393448152,0.05354037279245712,0.04725523716487354,0.0423579233237748,0.039473831275246236,0.03925352613112798,0.04113347588568194,0.04321026664098963,0.04383806817141361,0.043239486119947226,0.043479817830220584,0.0469832407039933,0.05439812813556112,0.06379450927681515,0.07256864147806825,0.07948092969785103,0.08471885316363166,0.0894716556639875,0.09567640648374634,0.10520626200211132,0.11869540549704787,0.1347163631702005,0.15015673345946023,0.16163414661454298,0.1668467426489285,0.1652838369370858,0.1576618639778404,0.14396048379518053,0.12206874361802678,0.08908524764738807,0.04417312849271682,-0.009613070939768629,-0.06578453179752777,-0.11769902926446782,-0.16308823072525735,-0.20498697213036798,-0.24717528027627644,-0.28892323121827423,-0.3238871828782813,-0.3430787873865959,-0.33990727849025526,-0.31480030602221204,-0.27592697643133984,-0.23500343991091258,-0.20164228878396184,-0.18003658091554833,-0.16848224697660252,-0.16140456681973658,-0.15287359193872932,-0.13868340164414017,-0.1168391921577698,-0.08831092392184017,-0.05687690857358625,-0.02704324234944615,-0.0016678232820764652,0.019458244797730055,0.039204483825077845,0.06054007984502625,0.08413427521836328,0.10807945826921342,0.12899791439564495,0.14397392024353473,0.15273712739020742,0.15844527396906433,0.1666873465798942,0.1837439474721914,0.21393335348299938,0.2552214935285322,0.29604664139226766,0.31893693838384957,0.3108018905030075,0.2722301225866616,0.21806233319309967,0.1680972758995839,0
