-0.010218651474886925,-0.013608348106741053,-0.015589653375718581,-0.017025879841900016,-0.02025398984090154,-0.026911807974087657,-0.03554294783475685,-0.041546699871695326,-0.03991241889460295,-0.028628005247419683,-0.010053691101887528,0.010509884914987331,0.027259104380652398,0.03624382742649434,0.03750229490424345,0.03498005385121544,0.03322001036797895,0.03417871373072754,0.03740330867598042,0.04160049299012148,0.0449974624368887,0.045758359910587035,0.04291364974623766,0.036217018050282955,0.025709338980705328,0.0124384468748336,-0.0010775050961402749,-0.011910698156455284,-0.018195158118794765,-0.02011591590666404,-0.019835721232478683,-0.019604633872726446,-0.01967811441432294,-0.018783676854988274,-0.016165976339739128,-0.011898399255020304,-0.005874946303074969,0.0019056860546213445,0.00989904045329466,0.013554618875326456,0.004519091993834693,-0.027054515327530015,-0.08436117954931277,-0.15247677289425893,-0.1918973442828132,-0.1460466818265534,0.03324546014162474,0.34971585195306953,0.7358929965542989,1.0588399768228154,1.169496219405177,0.9777097953056049,0.508432406984823,-0.10051042048826363,-0.6608254007625788,-1.0191317058547078,-1.1165792567486292,-0.9937825644246032,-0.7488414514398911,-0.4823442974848836,-0.26075642166120405,-0.10891417210876361,-0.022620386608359317,0.01517212374283252,0.02434694668015077,0.022786690606452095,0.02277215378918869,0.028801631423054655,0.03872226494012654,0.04755719236638622,0.05175127233784,0.051209615865880624,0.04820286504215806,0.04515106464097486,0.04317166623182654,0.04161968849935438,0.03887414587295291,0.03410025886562147,0.02816944037380665,0.02259564427241822,0.017857340155197694,0.013130999066253354,0.007510031156167735,0.0011981209854396054,-0.004664071120959531,-0.009108802702663402,-0.011909631806143604,-0.013502364947590103,-0.014682281048385995,-0.016155359929603666,-0.018099125935791056,-0.020029933894948507,-0.021297677614720394,-0.0213697578290698,-0.01959370916230369,-0.015570161708933277,-0.009728626107892945,-0.0030354111994546603,0.0035634019061413502,0.009445258043692749,0.014618599213125036,0.01973691906792109,0.02582545755746158,0.03399882251730038,0.04482427899758396,0.05775892947742836,0.07140989872362158,0.08421952062572846,0.09508640619898573,0.10378253550107108,0.1110018025329786,0.11785169540140811,0.12471238826637997,0.13045150431657304,0.13328377594097035,0.132631234919831,0.12972942777496957,0.12619771912506253,0.12269586519793307,0.11903234049673461,0.11444017328347536,0.10746490885303726,0.09633294530453078,0.08023995713421123,0.06043609863274289,0.03909245062744132,0.017164059735423204,-0.00534278523986538,-0.027640411653836284,-0.048065548342091646,-0.06504109334017816,-0.07774178621783909,-0.08686595231389704,-0.0945181410346034,-0.1022075785444824,-0.10939282346085696,-0.1143446943264618,-0.11574772499608253,-0.11358359063391997,-0.10900496961036463,-0.10342879722582782,-0.09754679294442876,-0.09111417624375322,-0.08366760643143882,-0.0752784001002028,-0.06677327545186394,-0.05907801050426959,-0.05210541478813451,-0.04500093351919557,-0.03762762006301262,-0.03096063406164787,-0.026175166232878667,-0.02390574011134844,-0.023574759520797975,-0.02300333828894741,-0.01972701636884157,-0.013069885465116766,-0.00459849496658008,0.0029548452860372852,0.007134428613402783,0.007442567575288692,0.0058694826778973,0
-0.01590827303945243,-0.013593351680612672,-0.011100690073958636,-0.011145189121106657,-0.01656485564589456,-0.02761765907181312,-0.04034110923697889,-0.047932432113541555,-0.04403516198902338,-0.026325533597351056,0.0012694817085074298,0.02997899337623562,0.0505517404435473,0.05744538472944666,0.05124590012376934,0.038143232024877585,0.026076303553668016,0.02084147891223171,0.024609054266997478,0.03547593116220486,0.0480086325669176,0.05583088880056449,0.05471084866725462,0.04406743482566183,0.02663576137624575,0.00715329002648304,-0.009415970357613485,-0.019870290588163995,-0.02382173230319575,-0.022828179231158048,-0.018739903187674913,-0.01311746808762907,-0.0073283921533537424,-0.0021236145412231516,0.0025325818964759723,0.006885805145738859,0.011176255894164634,0.016116839206155614,0.022564472346144556,0.02901758209710952,0.029406998557639404,0.015247632113443342,-0.017288009200542624,-0.05744411718943373,-0.07262081466776488,-0.01390209642511584,0.15907838324095167,0.44220913442291065,0.7640215128742214,0.9996569000204352,1.02383852212185,0.776923160900983,0.3043194560203181,-0.25804814428088907,-0.746439609274119,-1.042506503244257,-1.1144064074631403,-1.0086639150575558,-0.8077222117097775,-0.5848781432802671,-0.382359964211568,-0.21578232108693923,-0.08904472543822499,-0.0031779086219682964,0.04446713200724728,0.06295950207155446,0.06566048118775944,0.064728392343983,0.06665766958046683,0.07155319483064536,0.07638474920977276,0.07887192802570983,0.0785848559605711,0.07587408164225458,0.07120634032657924,0.06516628616972903,0.05789558022125564,0.048747959052839955,0.03744138286525706,0.025517262842689212,0.015940560171685422,0.01084031540635237,0.009716284859868328,0.009757453674034446,0.007784561189948854,0.0022573003614492215,-0.006182820470882134,-0.015657654151928727,-0.024378905196124342,-0.0313508226724385,-0.03601327100277419,-0.03782622728836817,-0.03664394226782566,-0.03326092755730338,-0.02916389695890657,-0.025405078755768605,-0.021912334361201376,-0.017747952446387216,-0.011565961491814894,-0.002241145897354924,0.010378541431535663,0.025159406686186,0.03995718317785998,0.05257179374477804,0.06236199730845378,0.0707904335307622,0.079832869086564,0.09075003322064908,0.10442416536669123,0.12126501052401736,0.1403423802624751,0.15909289110538208,0.17395832663326743,0.18192578510713645,0.18254125989079772,0.1784890030837993,0.17377053264422967,0.17114955521382275,0.17069336447877423,0.16999324105480645,0.16564455857706933,0.15519551683654614,0.13836076496789645,0.11604506456184517,0.08872737491964311,0.05706886512216088,0.023164488440643012,-0.010194726114428919,-0.04086157809530163,-0.06733483425992937,-0.0885348063246437,-0.10466926626623377,-0.11749408049902338,-0.12886545063293525,-0.13946353027344469,-0.14868175659795096,-0.15524891531823987,-0.15793081158610842,-0.15565722186862208,-0.1480583048383034,-0.1366396622067263,-0.12437513157917104,-0.11377105503386648,-0.10584003160979513,-0.1000828751490032,-0.09486503173066833,-0.08863912715042084,-0.08081306573781809,-0.07131856327786197,-0.06040443639644779,-0.04902377526905809,-0.03843466529732532,-0.02941930176986139,-0.022483307940598697,-0.01799100028189969,-0.015213118091130243,-0.01231443426705392,-0.00799870604358292,-0.002371953394014005,0.0038713657647798834,0.010162931745544588,0.016014113875652037,0
-0.009267063944971746,-0.00842698446030542,-0.009585702246778589,-0.01436566367047064,-0.023439957683384482,-0.03473042690038881,-0.04363542235531612,-0.04541899927957067,-0.037527944559477694,-0.020438020498573097,0.0022171202558087114,0.024157324705543874,0.03903475957143352,0.043936354950189854,0.04067335934491999,0.03415829751687892,0.0297842677839276,0.031243769364688333,0.03890094505579851,0.04952260697987569,0.058101950973333316,0.06048758682891289,0.05501526370807763,0.04259839596141082,0.02592759122573314,0.00871745922738372,-0.005056292843345141,-0.012674703858751274,-0.0142248638787184,-0.012325709377398096,-0.010193453857912897,-0.00998677608462055,-0.012038071015475507,-0.01479451646546364,-0.016018590372765963,-0.01443054976290995,-0.009554065085987896,-0.0005770045827023819,0.012587985838158303,0.026390219541382678,0.03208341639038396,0.017645889980663933,-0.026109770026548882,-0.09586936297086551,-0.16592297625583874,-0.1857682015242011,-0.09484907545054344,0.1436657999864371,0.504441332805661,0.883645349049263,1.1273926871131557,1.1017290678014795,0.7668460703643435,0.20763285331438625,-0.40160277562960567,-0.8788888899387792,-1.1142846833687114,-1.1023950758400154,-0.918145532391116,-0.6628788406167904,-0.41748373280335316,-0.22378202926533913,-0.09111011398266802,-0.011462807511108394,0.029130379125878368,0.045407639194433635,0.05046593532935928,0.052972343924038316,0.05568711706946508,0.057863272673154234,0.05877280100324885,0.05857493933442068,0.05735290516215257,0.05480014672258412,0.05085723355140462,0.04612208605234071,0.041734255419708,0.038961739203700003,0.03814110554000224,0.037668797297438036,0.03474337271218775,0.027711905314176073,0.017456017675437148,0.00648913578263541,-0.002549523242369657,-0.007836068390438227,-0.008958300680370486,-0.0069234455977206875,-0.003694860339196391,-0.001587648368978907,-0.002432451247623331,-0.00660789285187735,-0.012499066822101087,-0.017355542496566297,-0.019174150401644607,-0.017897746992886033,-0.015299189466254168,-0.013730449119492423,-0.014198186503582413,-0.01506221298545192,-0.012663238059631135,-0.003819983972104422,0.011707789345081357,0.030942252163007503,0.04953811476827904,0.06403077524560116,0.07357184492167747,0.08037314027197234,0.08772313562520608,0.097237915775889,0.10813883575247575,0.1182092473409302,0.12509018414184822,0.12758410980133406,0.1263462714574879,0.1236314373246964,0.1222991965349716,0.12397404926317582,0.1277582325017645,0.13130824581034295,0.13243883322971964,0.12918200941544344,0.11981924245238612,0.10406411684626096,0.08377775229833528,0.061782934538654764,0.04004848570381968,0.019169040880258646,-0.0010584279746951863,-0.02117075481489692,-0.0419298016390335,-0.06383262211194128,-0.08608237547174825,-0.10645462017023563,-0.12257915175088713,-0.13283117897061622,-0.13624572709713179,-0.1328115824284141,-0.12394431768250411,-0.11215108398759328,-0.10052634031444493,-0.09209702633902889,-0.08821047812311585,-0.0874142992163912,-0.08647934678918921,-0.08229667163566141,-0.07330336556300672,-0.060465348770238285,-0.04676586874514118,-0.03521126739916674,-0.0278016689728727,-0.025715290088701433,-0.028659366465833315,-0.03369589199062945,-0.03591442833109892,-0.03152360747528367,-0.020847151230633715,-0.007956249185643584,0.002679904327091691,0.00882994187421564,0.010747949909849222,0.009955604890691076,0
-0.007688677735870778,-0.007828008037357226,-0.01045835900570888,-0.016400157389291268,-0.025666595849509217,-0.03645503386014829,-0.045158247512188915,-0.04730725905327407,-0.039270846316088605,-0.020610369556779577,0.004667264357334674,0.02918674773684134,0.04546148445274215,0.049705325338638466,0.043602104282711066,0.03322488880601979,0.025574362627035163,0.024737607563749313,0.030610157339851063,0.039918344516162926,0.048026949817901995,0.051374903007543805,0.04885239082880407,0.0408706997220309,0.02857209165497463,0.014439528995768844,0.002187117482094909,-0.005036757124009871,-0.006644003303199305,-0.004639921761676528,-0.0016124782166784847,0.0007694563814146602,0.0017707284865080873,0.001371762524069179,0.00027193443243795235,0.0001313013731756435,0.0036047434756564765,0.012847208182876216,0.02680309083964299,0.03933085412278968,0.04003534903994582,0.018967212616515763,-0.02504356301305627,-0.07502046447872013,-0.09171386992221409,-0.023479377398071592,0.16636444392223151,0.46536703038838123,0.7935819166557979,1.0212817988691671,1.0240716439641706,0.749042197736968,0.25116430141131435,-0.3254599278934973,-0.8130357236027631,-1.0943529280859137,-1.1432310927057505,-1.0133295690149149,-0.7919726982032245,-0.5543103602656657,-0.34346505494564394,-0.1759361505556188,-0.05528481216369879,0.01988768527823378,0.05569082902227262,0.0639546979812966,0.05954657986204365,0.05509659642266019,0.05681110664011444,0.06400724672147327,0.0722935813989237,0.07744048063012925,0.07730242576624693,0.07217314699516719,0.0643025069175783,0.056204914678598096,0.049095730016322996,0.04323091974619514,0.0388140631921121,0.03554931203869461,0.032129528165026885,0.02735016146760598,0.021258667835536246,0.014531177239803818,0.0073056248728593145,-0.000700701757313172,-0.009091409263524631,-0.01647232318859803,-0.021370503179718857,-0.023035436996813725,-0.021558144078722818,-0.01786598000042174,-0.01338768140948508,-0.00918510824234733,-0.005672497575785838,-0.0029512239736721535,-0.0006204672983184001,0.00241807223688756,0.007301216951618775,0.014190977871119241,0.022269022107380285,0.031030591641808387,0.04073298675154099,0.051334070480451056,0.06229967386618953,0.07360007097663347,0.08559435616626032,0.09800217904360055,0.11010949985222417,0.12141321181463212,0.13109526491820875,0.13778423927418826,0.14074152962368808,0.14082025493585804,0.1397665328037693,0.13875733285498706,0.13798789496496847,0.13731078091914697,0.13629710961616165,0.13385400423158733,0.1285183437129691,0.11881212960106738,0.10359864162660964,0.08291992879001626,0.05814114041974715,0.031104268516222482,0.003489700676553166,-0.023463764497181988,-0.04886894276487355,-0.07139749095227788,-0.08922535202146428,-0.10153529474010962,-0.10936266342990622,-0.11469898946304323,-0.1192728625245382,-0.12369795500662935,-0.12718098373234785,-0.1281892234793843,-0.1256791422194451,-0.1200534756398533,-0.11301287605497007,-0.10636286766154257,-0.10091247813358394,-0.09631152234515887,-0.09171706683475883,-0.08610815614969289,-0.07830711945826956,-0.06792145559961954,-0.056059905265529765,-0.04463734486289356,-0.03527580032114985,-0.02842288121057258,-0.023032056502896726,-0.017451687330191687,-0.010710573743122113,-0.00291569106431404,0.004578791162431518,0.009105156856296148,0.008595166257015669,0.004178943127050217,-0.00015225432464163573,-0.00024762765354433697,0
0.005267378368225358,0.007026892778095276,0.003755432162452252,-0.0056427640653873715,-0.019376578125319538,-0.03319489897124927,-0.04174390459285243,-0.04025081883067291,-0.026391946631394936,-0.002047033817703958,0.026265273442302402,0.049374451943833726,0.059296576425988526,0.053081444660867685,0.03487815838416864,0.01469160173588986,0.0034197469212508182,0.006945267159964615,0.023190264300197654,0.04386460330720918,0.05982380994609502,0.06597978556974499,0.06211575399376049,0.05055258291519343,0.03425054338569883,0.016714160757150796,0.0018989706682291992,-0.007046998112155518,-0.009232459471997013,-0.006652838028726363,-0.003223089223627985,-0.0025368249403220737,-0.006006475190012383,-0.01211002781976474,-0.01730148655814861,-0.01856932694504012,-0.01500829671949378,-0.007044570442797741,0.004234255558547319,0.016017078048057746,0.022995674129070158,0.019420637713839364,0.0038642267376233896,-0.015299903916966295,-0.0160921132414059,0.03503805212216318,0.16929375466462807,0.3906903312300723,0.6552205988747524,0.8725733995471765,0.9379917848951471,0.783396733504506,0.4189998657134708,-0.06367075531982336,-0.5319684930619735,-0.8713848987431679,-1.0292759207195235,-1.0205248203354245,-0.8993346297745629,-0.7229920393541605,-0.5316111970955602,-0.34842073365785015,-0.18886696358930485,-0.06563668369138395,0.014152678481166359,0.05376783933661935,0.06598615125244092,0.06653681597354648,0.0674020100683358,0.07332253113272524,0.08236028568721056,0.08966222255173728,0.09136808883231551,0.08624732454118901,0.07567141426870856,0.0631012312985621,0.05248501385616331,0.04578681715793509,0.0421180068023979,0.039343296155734175,0.03582164097139036,0.030861740546628956,0.02467296654341176,0.01807888927184082,0.012039561572965162,0.007241730488001323,0.003704113306491395,0.00079005234981166,-0.00235590429580638,-0.006347252373125844,-0.011127860066848624,-0.016007677734091355,-0.020155750184155725,-0.023054205075382177,-0.02470127256177788,-0.025111117898231797,-0.023634838864172777,-0.01932764367299725,-0.011948500493021104,-0.002432862110362293,0.007347078577334795,0.015334683794238132,0.020830064553262577,0.0259745658374016,0.03461011621166263,0.048824467296796556,0.06742969440710647,0.08772463411940082,0.10742061911802228,0.12494614110508326,0.13907290100005687,0.1488870083091214,0.15414185305421726,0.1555685413133444,0.154670856648764,0.15302204323301796,0.15189769145712229,0.15204813021173058,0.15271477805009082,0.1507573267620224,0.1421506437215839,0.12577485361086957,0.10515254882551693,0.08589452987154814,0.07199565321329446,0.06345982633344838,0.05582236912905247,0.0425661013824809,0.019440391430116156,-0.012655820298200685,-0.048120042991855315,-0.07994009416436892,-0.10381680040679817,-0.11993460149995533,-0.13094516082616423,-0.13876238774346392,-0.14358648336709953,-0.1451740335287354,-0.1435716482319309,-0.1384274201222521,-0.12922538037011844,-0.11683954532026598,-0.10399586628476146,-0.09372388036236012,-0.0871704847501286,-0.08288426663024176,-0.07805431833766459,-0.07018108970616672,-0.058422112555513286,-0.04473453148815681,-0.03338884543225703,-0.02818438788906557,-0.030090826731635413,-0.03678404636742935,-0.043481829760915025,-0.04545467648472043,-0.04066813208477268,-0.030250010452379288,-0.017603009236319495,-0.006812666313232669,-2.956251656799705e-05,0.0038723719015136826,0
-0.026590762707422878,-0.044856835215914125,-0.04800145822052055,-0.03460535768785205,-0.014920557782190962,-0.002702673415521444,-0.0036006402162045616,-0.010410323704402303,-0.009393057745962899,0.007792934845130971,0.03621705194075393,0.06073066989341982,0.06751786337583207,0.05418438910835544,0.030972206223229617,0.013168185604710603,0.010632445564928563,0.022401456326581595,0.03987820252015878,0.05447576114952489,0.06248935145594182,0.06419647910693896,0.06035425025574522,0.050181984157585645,0.03238628594651767,0.008324295269016627,-0.016752099832117794,-0.03706818290195332,-0.0504944308924612,-0.05861726306958547,-0.06311905176954408,-0.06306751606018683,-0.056505161997202624,-0.044010415776858984,-0.029810510248518655,-0.01922842864214629,-0.01448588914291317,-0.012485460017218992,-0.007021290831769134,0.004971569549122913,0.017590969473522407,0.017286916610607887,-0.0069143999464510875,-0.04865758393467141,-0.07379675370567765,-0.026798644493104113,0.14043273480957025,0.4293150704541869,0.7701299603718816,1.0353247336827092,1.0931120787491282,0.8756392720922437,0.42125282103458,-0.13726202845752822,-0.6343057775708609,-0.947462542499683,-1.04313829977433,-0.9690854521202964,-0.8083525707755792,-0.6309979225022047,-0.47146532103382616,-0.33437869444697277,-0.21355527521901221,-0.10708904112337674,-0.020262967205878044,0.03996939046334116,0.0709568616131941,0.07725446093451932,0.06998501415076444,0.06239667708720424,0.0634598728376449,0.07366586893588617,0.08569902962022719,0.08949281971307461,0.07899395832240672,0.05650621290342705,0.031142028384512705,0.011953678638737196,0.0018078901679392002,-0.0021724599597352824,-0.003770675191056408,-0.004771222455149243,-0.005506556420593445,-0.006664634373511365,-0.010138810083249414,-0.01721087088818688,-0.025994158488841734,-0.03195916987998095,-0.03146957960516229,-0.025108630144008354,-0.01785764307587181,-0.015373876920810554,-0.01940581829663234,-0.026789978120607127,-0.03222007279107859,-0.03169052531192873,-0.024817759242455873,-0.014889563624338272,-0.006122641820668442,-0.00031318535063236397,0.004250662360548701,0.01139961429513433,0.02457618878382465,0.04433413404582923,0.06761454055521265,0.08978065384206009,0.10762264149531026,0.12101889957102746,0.13265973965511088,0.1463806851020902,0.16510946404043833,0.18947919109210384,0.2173634005071268,0.2437766236786788,0.26172607475106036,0.2657521292772065,0.2565521546197107,0.24173578127103482,0.23059534019424133,0.22633718081138657,0.22241219818983043,0.20687211011287965,0.171428150140493,0.11783374711582673,0.056805321103312316,0.0018441462275358977,-0.036548457248648684,-0.05492292958335921,-0.058411802727868924,-0.057684666548894675,-0.06349286258798628,-0.08266327667211112,-0.11603070952436301,-0.15751078678674282,-0.19562286127513226,-0.21886122366262864,-0.22219614175116265,-0.20967815419041577,-0.19096904813080906,-0.1742057278754534,-0.16114245334006855,-0.14891444970923018,-0.1355628479461914,-0.12320082413786979,-0.11595921140086077,-0.11467456956778384,-0.11424718983837097,-0.10690183729230904,-0.08796777098592161,-0.05982246444865901,-0.03168044984239568,-0.014563068735024096,-0.014601414963138059,-0.029788002280750597,-0.051293700566934025,-0.06757918924568912,-0.07008919132718003,-0.057413564605739736,-0.034617554517945626,-0.009316580434658925,0.011814692334202449,0.02516241612639366,0
0.023690775012109314,0.019224125041405443,0.018458229460350827,0.020854627252492486,0.02343316144237252,0.022822932882285513,0.017644825134292677,0.009538029502006532,0.0029590076519950713,0.003285676958070088,0.013045580378336703,0.02928298613087826,0.04496630873559278,0.05314909596180016,0.0506231810740259,0.039283355178062404,0.02491284321876731,0.013646486770823562,0.008163137092552382,0.006933976440401636,0.006997826518673357,0.007051219923780625,0.007631177755711221,0.008829050976165306,0.008816616121951266,0.004724777423533278,-0.0051603150010687115,-0.019711002826046143,-0.03541941450912277,-0.048310303812503105,-0.05533763651075161,-0.055206861558662945,-0.04869125469439166,-0.03820020907636715,-0.027345904719693066,-0.019519798621592355,-0.015154794197617675,-0.011323202486686581,-0.004973169394736,0.003108039800611068,0.0055993915344261505,-0.010386040686702378,-0.05562451401195545,-0.1258700664837763,-0.19067329385875664,-0.19419806459124422,-0.07577476078140544,0.19335831982895274,0.5747322715714673,0.954710571141755,1.181542950812245,1.136325680206975,0.7983888357929827,0.26313329693150617,-0.30171112475619444,-0.7356029353360525,-0.9527290902095118,-0.9612725102877276,-0.8324238651065835,-0.6486092782323878,-0.4663187995112251,-0.30917652682188135,-0.1818276847842566,-0.08500554731198522,-0.0202165525862631,0.013541911280700848,0.02283596512821983,0.018799730418303795,0.012912451245567037,0.012109318927117668,0.01704721259437652,0.024691250487168463,0.031687040547075065,0.035681748156707806,0.03571416246337607,0.0326889035022037,0.02848803624169049,0.023795381202722742,0.01765392644713343,0.00921442420861492,-0.001245116788326766,-0.012211394433942546,-0.020705248559630997,-0.023653796896397742,-0.020633000351226193,-0.014766998751205698,-0.010876559090303108,-0.012835385484761215,-0.02168439350125645,-0.03470807544657167,-0.04625952424471412,-0.05080521714995007,-0.04639899883132234,-0.03610410839220428,-0.02583472788030584,-0.019990842594377264,-0.01864407091238416,-0.018216177953559766,-0.01467500892961556,-0.006369982774339811,0.0056997015625136266,0.019311845016099356,0.032693593665628816,0.04574168072764476,0.05984856769838374,0.07675800831855985,0.09752420935072711,0.12140592581821359,0.145764845440522,0.16784048543104904,0.1861651254561018,0.2005171645925637,0.2113945859608623,0.2194606169696775,0.22525439745727466,0.2288660788893025,0.2295222986891543,0.22588871869710558,0.21697101016348233,0.20271266824474868,0.18367607422736307,0.16021525824111688,0.13212204429652882,0.09901386394182854,0.061309022664730754,0.02125136149638445,-0.017452200217574945,-0.05171867411443111,-0.08061521912379802,-0.10466957107159656,-0.12437802402660732,-0.1398526701349386,-0.15125099749627502,-0.15886305853576113,-0.1630916858228865,-0.16446221975301814,-0.16357249058520043,-0.16127129619525854,-0.1584438323920973,-0.15480769079455464,-0.14824047623973272,-0.13648574146476547,-0.11981910926270564,-0.10133030632089703,-0.08460126862182756,-0.07197790317525937,-0.06458337763674697,-0.06218209816344881,-0.06272470042603219,-0.06303460702439949,-0.060215632915029085,-0.05287553243572019,-0.04202856096616085,-0.030391803741643172,-0.020192106338913104,-0.012062802451159104,-0.00562305292851626,-0.0004948631193525364,0.0033115169642837124,0.00598882760636274,0.008339662644013878,0.011228235478838385,0
0.016833779029890146,0.03314508066197025,0.03381917689092963,0.019807939777148186,-0.001755372265396695,-0.022188467487973044,-0.03526402711984013,-0.03874499469638225,-0.03341023628631754,-0.021366446373907052,-0.005301921697469732,0.011443878989704344,0.02500834624841694,0.03217841666094624,0.03209381159017283,0.02676907005306005,0.01972958900091013,0.014031923178376798,0.011165037328872402,0.011070766498791476,0.012814020796186033,0.015232956299163753,0.016854651287713213,0.015596555714200135,0.009550295859209624,-0.0016280721047943817,-0.016192303282577585,-0.031173583218469497,-0.04398953444923444,-0.05328201745784594,-0.05874311264257309,-0.06085525830402659,-0.06030732895395356,-0.057439634965359254,-0.052726587945414065,-0.04662526153062007,-0.0381477443124979,-0.02561929527291648,-0.010414828953176554,0.0004135394184017979,-0.0045757663914477165,-0.036377297816020004,-0.09778153240416607,-0.1738152632025787,-0.2255855695819348,-0.19616795421229613,-0.03332187333121754,0.2767274951060964,0.6809995431155326,1.0589595671126961,1.2629589625480457,1.1867684449817093,0.8232492372881892,0.2747722155141033,-0.29125620944632985,-0.7175800640552602,-0.9212370069991859,-0.9123347264730134,-0.7648349811124431,-0.5666192090573192,-0.3805185620662961,-0.23257136969171044,-0.123284042089416,-0.044849552978243355,0.009427998077730327,0.043988499759801195,0.060994435887511037,0.05999239665877888,0.04167544699659863,0.013685731034832577,-0.009434481897227252,-0.01311188914025375,0.009159539425988504,0.05033826409165315,0.0911072518919408,0.11061455660632262,0.09956632422997456,0.06429035581829648,0.019896535558413395,-0.01937118087606781,-0.04577190819109472,-0.058632333305980854,-0.06138211199717912,-0.05854200625752383,-0.054942880367319674,-0.0545073164777859,-0.05798900557542108,-0.06441138269226265,-0.07529857897925643,-0.09426337599030235,-0.12082302457398471,-0.14563075170455228,-0.15391735122535072,-0.1359969046619572,-0.09487006328562829,-0.042961534606144505,0.008168344777514767,0.05410662459193181,0.0935497973169458,0.1193735917651489,0.11686095278517294,0.07497619333654389,0.001938033332275102,-0.0717480248791413,-0.10978561301664162,-0.09409224882847271,-0.0361020619913075,0.03355765591821314,0.08794436789270929,0.12069615987605646,0.14268415955375485,0.16323849807386814,0.1773677613046339,0.17244315123718848,0.1462679290787214,0.11787060069884132,0.11862854986757945,0.1676140988073532,0.250490449779933,0.32301086760081915,0.3412048726215627,0.29457191370248514,0.21412866694334606,0.14871223691145286,0.12781295367193457,0.1394525816179632,0.1416517342007813,0.09843747233507807,0.008756364707965814,-0.09443031592465564,-0.16946059967830948,-0.19466474778296367,-0.1814579291098437,-0.16342416931555917,-0.16920998330783366,-0.20134804269857862,-0.2373971724213002,-0.24888200548224154,-0.22368275414746214,-0.17651814190819134,-0.13581259556736852,-0.11539337938062567,-0.09866255020457465,-0.0540560583641016,0.03011118363601366,0.12420726246197447,0.17176402408291747,0.131337641308947,0.011695992214744051,-0.130715792855418,-0.22993809410053728,-0.2518523687671402,-0.20888571477088763,-0.14221211047579352,-0.0890429120794637,-0.06256271986994759,-0.056911969535115015,-0.06356705932726034,-0.07868245219049855,-0.09646558995461993,-0.10017993094325103,-0.06531286847737372,0
-0.009236666631453103,-0.008758689801848171,-0.00585071411462335,-0.0015635534149522914,0.0008960066787886778,-0.0018650634318625467,-0.0106601405285481,-0.022254421596243183,-0.03053343818455892,-0.029764142275422747,-0.018242360956302713,0.00047068077923250666,0.019859510955868877,0.03397992788663634,0.039841810898007674,0.038199482212135774,0.032758086772839264,0.027949529294546832,0.02674723601063419,0.029749616056087825,0.035178116224742435,0.03981671076319196,0.04075338568357188,0.036702385092287515,0.028173449246078716,0.01692186000760176,0.00549135119886486,-0.003521969813796385,-0.008833711268134977,-0.01113618276130687,-0.012394133845816164,-0.01444344146554139,-0.017769543187730434,-0.021355105138119692,-0.023469044283995412,-0.022658378535779455,-0.01814697962739864,-0.009582140061500394,0.0017291360769993644,0.00987989216461439,0.0037863959304386715,-0.028090956072068622,-0.08834275187511482,-0.15969716239339074,-0.1997568009694408,-0.15087374545915427,0.03177684312680762,0.34461390497681427,0.7144291022225834,1.011988572964406,1.103380783584321,0.916751710397474,0.48556687961834705,-0.061363573711759746,-0.5589548236462255,-0.878888525758177,-0.9765215864891178,-0.8902028951663832,-0.7018432333935851,-0.4904225971339672,-0.30568385921050606,-0.16634627679614972,-0.0717147215201002,-0.013887437551832298,0.01641299494317531,0.02867782607935989,0.031407278064885545,0.030576731210368267,0.029610716007204947,0.03009769828001973,0.03182919008331192,0.03310596105623828,0.032409927276499315,0.029861545492769734,0.026822683182497906,0.024480861257584575,0.022877379688076818,0.02110411345781829,0.01842974775206254,0.015095355850637236,0.011601688876596069,0.007480794514156152,0.0017381762128773261,-0.005730618148116031,-0.013716143735235768,-0.01999976021188364,-0.021955346147451156,-0.01787049853070348,-0.008753094235732551,0.0006855421415006627,0.003733471981265486,-0.004076836795090461,-0.021498840107519426,-0.04199176306911489,-0.05752091337855999,-0.06252169710008716,-0.056119199056283486,-0.042152284116730325,-0.026320232722765808,-0.012364219887224687,-0.0007915680137783416,0.009593193693713763,0.019509492299105244,0.028464556282795386,0.036168631088188324,0.044302186210809724,0.056081829463553244,0.07338423083335878,0.09451400467163072,0.11566814575633326,0.1341841369259478,0.14953404909075496,0.16232369012678602,0.17334646179209465,0.182746717888197,0.18993298688060317,0.19459099017257783,0.19704252343443704,0.19751442970329386,0.19561380818255253,0.19018524324079505,0.17929408692616117,0.16122550974755695,0.13597858252815842,0.10526955427905849,0.07150572646398423,0.0370620835990534,0.0036700757191515387,-0.027828109872162055,-0.05695600682791616,-0.0833626883688772,-0.10697168489416017,-0.12744555921013673,-0.14377841287546347,-0.15460914691586905,-0.15859733136292853,-0.15525681480354486,-0.14608068048523323,-0.13452402544580166,-0.12448486737394115,-0.11844101406989854,-0.11656112916553116,-0.11730979238085092,-0.11861790114765478,-0.11832631467933044,-0.11434966564236701,-0.10547655563908052,-0.09233514997323077,-0.07740992865103183,-0.06356041825811856,-0.05218464919531713,-0.04297875326729113,-0.03527993192121857,-0.02891942892139415,-0.023683756736142134,-0.01880572680853347,-0.013424373028013286,-0.0072105416842172775,-0.00031924055653166986,0.006739649147301647,0.012931305123407445,0.017314524393084518,0
-0.00822094752263281,-0.010400438295720526,-0.011437438399093567,-0.011637650246948005,-0.01227196701635602,-0.01485787386753706,-0.01977794778256429,-0.02479345582436598,-0.02502455604066964,-0.015096175607143226,0.00697958595790014,0.036813511577056306,0.06473314729841222,0.08039377512472178,0.07797720772668335,0.059513466014434115,0.03405917490386835,0.012836010773869757,0.0035579605307738847,0.007036489623072883,0.017804081466128354,0.02822600151405954,0.03285243970242182,0.03004761358759055,0.02100204641569182,0.008490965567576409,-0.003652011924046998,-0.011856988005188158,-0.015244501785658488,-0.01617992940742633,-0.017726445411664675,-0.021073516887433835,-0.0248638285117767,-0.0262157398585103,-0.023009274670549716,-0.015539198272359282,-0.006118395594612192,0.0023611283924682416,0.007528169304407603,0.007770459951113879,0.0017246723377493823,-0.011727953737241087,-0.031152122392895207,-0.04766492783253524,-0.039865074403655526,0.02545107793663794,0.17968315413554134,0.4271104170242846,0.721954364200008,0.9672900215815725,1.0480653396130284,0.8883972497301345,0.4986062161439697,-0.02152919776376734,-0.5268208775708032,-0.8914618244824245,-1.057718054614661,-1.0433209282083586,-0.910591031885212,-0.7250048381946941,-0.530851444443376,-0.3507824923473174,-0.19700788144688144,-0.07877441535648677,-0.0008933070401888274,0.04017968471503728,0.055239431422877586,0.057031080962655877,0.05560970674466393,0.05623409599907956,0.0597143889834365,0.06475999853197328,0.06986825970378968,0.07328910626443912,0.07322753392947892,0.06903283788163957,0.061499261824863136,0.05208069179923467,0.04221942761173038,0.033255343631030415,0.02620986020147903,0.021057016326093823,0.01674530246454392,0.012066108974319634,0.0061486792401107635,-0.0014226232537438155,-0.010491432254571819,-0.02008997529506386,-0.02854912732832014,-0.03436574143493932,-0.03699351027828471,-0.037049449972247094,-0.0360367929138264,-0.03530832427508712,-0.03492623609261866,-0.033969495704081955,-0.031762496717946044,-0.028027729092733638,-0.022351271649158316,-0.014507929319199782,-0.004874371618716389,0.006261482387887924,0.019352221328231986,0.034951003129329375,0.052835058126429246,0.07204553488374373,0.09117293585114196,0.1086588044144288,0.12362557300997663,0.13634572606726014,0.14775506347906517,0.1586384761400424,0.1688834964042191,0.17736959776694386,0.18280627359469317,0.18488428065615722,0.18450555741311775,0.18280745777965315,0.18062208588078732,0.17858113172789813,0.17628383841824677,0.1714013858089864,0.16089326642154403,0.14318567412422029,0.11869751940145644,0.08915200076075806,0.05672843113077548,0.023118404821059382,-0.010555674189113781,-0.043207196929991434,-0.07366608216202297,-0.10042592222777304,-0.12152736746219495,-0.13578309054925547,-0.14421315988414063,-0.1495270573405929,-0.15415396998260902,-0.15924784340382964,-0.16488333024268295,-0.16984904017287233,-0.1717396680083002,-0.16832614814651087,-0.1591322359252521,-0.146120528888531,-0.1325155799076349,-0.12043367471961947,-0.109816099489416,-0.09893751100787922,-0.08551402504341109,-0.06852909176486532,-0.04945184327829444,-0.0311065566871569,-0.015613904048470965,-0.003668199846777114,0.005017132601256854,0.011274194549393157,0.016080093609002994,0.01977363603626716,0.021712018489260878,0.021251531525310705,0.018999512579986104,0.016974514289757315,0
0.01629579236014195,0.013897726440295998,0.007705264763111289,-0.0009513121429078767,-0.011308363827911802,-0.022433297858612564,-0.03288764134249439,-0.041179024472179075,-0.04578021322452505,-0.04460695957335737,-0.03505723592219455,-0.016018093632255502,0.00918245964336284,0.032998197794335604,0.04778060521371006,0.04989845551173887,0.04169785326608989,0.030527129940927263,0.024047027020269972,0.02515665709579035,0.031339374232852865,0.037903246231238606,0.041496473708207915,0.04157658885965326,0.039159865661297935,0.034703517065396414,0.02792265456805472,0.018979095501215532,0.008597450878364592,-0.0022562500246556295,-0.01190814144055008,-0.01837492905486794,-0.02092556395355449,-0.02072868351944037,-0.020035605509341928,-0.02041493242013067,-0.020855877737279465,-0.017873196730262178,-0.008701259974411422,0.0043393665626465724,0.011765673323025978,-0.00013775256922429107,-0.04161859313674891,-0.10917040554569697,-0.1759397162634164,-0.19000753860790426,-0.08978581130834881,0.16147416744725868,0.5365584803987825,0.9287637939803605,1.1822819257644346,1.1626862722871723,0.8302845869241394,0.27022818599298226,-0.34300672788070485,-0.8275881179050423,-1.073736779412293,-1.076065607522948,-0.9092129437394695,-0.6729347712613984,-0.4444858746913303,-0.26150888902152697,-0.13160182604753898,-0.048821255674168576,-0.0030549947282781306,0.017693415056048836,0.025664527711316325,0.030337830311044478,0.036404093849502946,0.04400127116133976,0.05078469635566434,0.05428822128536848,0.0532930328800024,0.04828179681709984,0.041036626562105695,0.03361715557778394,0.027541358674586822,0.023286355245066063,0.02025688218761382,0.017556529719174003,0.014711790659516062,0.011544044194435655,0.007688518138337146,0.002684551475342559,-0.0033038407844028974,-0.009164542459580457,-0.013502411620248376,-0.015793517766601393,-0.016924685221899403,-0.018284726556863903,-0.020448983423610345,-0.023154462755175444,-0.026074551901542578,-0.028843518160629304,-0.03027692089436086,-0.028251706041357776,-0.02130022188858702,-0.010508487210117937,0.000635721723084751,0.008610452466209737,0.012488385971704978,0.014626393758030676,0.018684561793045857,0.026943912363938664,0.03956284761275262,0.05539331553497283,0.07265931972267463,0.08965381058682603,0.1056108908230456,0.12054554933517107,0.1339999507231002,0.1446447954281588,0.15145529333093805,0.1547592264400145,0.15611901358993813,0.15765181261158645,0.1609775571443857,0.1659854810019977,0.1706566824803043,0.17229549825551485,0.1690119311695617,0.16011244831497654,0.14498664570863362,0.12238004904616678,0.09187495444513707,0.05586597918540995,0.01936323994241275,-0.012633507341634057,-0.03792466643533113,-0.05759342376331858,-0.07429782947944305,-0.09012313033111474,-0.10565850559457587,-0.12048295331541607,-0.1335632926869315,-0.1433673594433286,-0.14834688798515971,-0.14730837559463794,-0.1398660806219244,-0.12751101067107484,-0.11374450840535448,-0.10221328627153049,-0.09482950703670433,-0.09110703061759053,-0.08836448329414133,-0.08343296790601956,-0.07485436198562648,-0.06325378613436866,-0.05040380314267312,-0.03858217101991713,-0.03005014160405495,-0.025994417661961814,-0.025956859345764298,-0.028473783609886075,-0.031402594794952304,-0.0319590030278618,-0.027972071745966262,-0.019466750569827374,-0.008780121126146326,0.000982385448041934,0.007716908787431975,0.010888734849413322,0
0.00042643356744407647,-0.010646924650824008,-0.015530469201894378,-0.014595925130621006,-0.011947489528598408,-0.012092684442501521,-0.016963968842645047,-0.025281218258945172,-0.03324031126525867,-0.03580450247170266,-0.028874011873783304,-0.011615936557939707,0.012497230152827042,0.036770527504505726,0.05394676577134348,0.059393675209611405,0.05359327114791333,0.04217326430745006,0.03262817995276608,0.029757387972744076,0.03379636093677105,0.042007824115996836,0.050461877514550287,0.054967809708112714,0.05260677533637684,0.042985521047887665,0.028050353118667982,0.01134857410235961,-0.0031120084882178085,-0.012431313136610209,-0.015569361827247916,-0.013179400661113653,-0.007439995434860867,-0.0014913459526891548,0.001971083660532713,0.001970680930308076,-0.00015192970855627645,-0.000905912495731697,0.0033514529463099484,0.012581469586800995,0.019782019271788836,0.011599502976320522,-0.02478835021847189,-0.08986046573019632,-0.16036127955109378,-0.1860181650628219,-0.10346049217853481,0.1291563173043915,0.49050574183613593,0.8771716723352622,1.1325281984907112,1.118963186465225,0.7940355894269648,0.24143201700259725,-0.3650913601352282,-0.8440558589428282,-1.08630877173918,-1.0874504468462813,-0.9218442250288665,-0.6866553469174193,-0.45595578010892013,-0.26636780084244654,-0.1274442899805027,-0.03679585890190866,0.012199124413152927,0.030023432437887312,0.031112208722368896,0.029339161016687723,0.03238136443067525,0.04075448756602557,0.051050091707332705,0.05933015615094725,0.06297670804802255,0.06146802316897846,0.05607320312812866,0.04874223715345328,0.04147073856891195,0.035713551996959206,0.03128867854394371,0.0267589499483393,0.0212346862375424,0.014913177070429127,0.00827665684162995,0.0016513356167674534,-0.00459220624373298,-0.00991515028756032,-0.013750491606907448,-0.015557507093645428,-0.015108756062459889,-0.013016082673275035,-0.0106953385851132,-0.009751372800781612,-0.011108825172165193,-0.014187847545553026,-0.017007914371445415,-0.01750791433014095,-0.014747552664833193,-0.008930255036922937,-0.0007258886315061322,0.009200726361771518,0.02005796574242226,0.030999320176479533,0.04166246974064573,0.05195020736589313,0.06143652754413477,0.06979968520863687,0.07749454751269724,0.08541932150125055,0.0942485132363918,0.10425191847897002,0.11519373823301271,0.12597595465765998,0.13483903155159652,0.14070813689797756,0.14398913344033723,0.1456246875450185,0.1463459335196148,0.1469111072644056,0.14777657279940487,0.14828790616299592,0.1465417877209028,0.14009964374391964,0.12730840231258295,0.10815030372856665,0.08379258274578488,0.055849709146738064,0.02624956855945675,-0.002861758651109353,-0.02979836106908519,-0.05387461911383323,-0.07498353491953694,-0.09288155427169963,-0.10724562463141724,-0.1183897037705303,-0.1273827030679543,-0.13496043847365893,-0.14029633020751736,-0.14142555581928257,-0.13726224961930394,-0.1286438828202295,-0.11754485556646327,-0.1060844461935403,-0.09577809332901692,-0.08694952166347868,-0.07905570903361896,-0.071563421424788,-0.06428694576738274,-0.057215828572573936,-0.05037387102295373,-0.04391017534603866,-0.03828967983215681,-0.03411682162307305,-0.031527891244657026,-0.029864007453593314,-0.027765460417196713,-0.02365019381598967,-0.01676357464624535,-0.007664600072741652,0.0021831557961797133,0.010648927952255055,0.015668882627025434,0.016667007901309202,0
-0.02077247603746033,-0.03169487802148901,-0.03331762439374431,-0.02840953252651409,-0.022931697703321086,-0.0215497073020081,-0.02446265535205363,-0.02750552604985063,-0.025573816681034985,-0.01624453125581907,-0.0008022513765241562,0.016480533745524478,0.030083162717239768,0.03605124128174255,0.034222668844529305,0.02829888798609622,0.0234387657578864,0.022550325904358164,0.0246034481497078,0.02665856587766871,0.027466340699597764,0.029837390469239295,0.03908418340765724,0.05715189261979756,0.07797910398882321,0.08925345264587106,0.07947373660523735,0.04592757974344826,-0.0016777642210860457,-0.045664071679434495,-0.07073477997688356,-0.07230360731811264,-0.05680303913956604,-0.03568027924818133,-0.018438454447598087,-0.008388399386514117,-0.002876239524098455,0.0026857096606324373,0.010743948094232092,0.020085464274809197,0.02549083758793767,0.017895816557576966,-0.011961071964039676,-0.06454714738937696,-0.12015269816398363,-0.13334468358138732,-0.04518631011749901,0.18225419930401196,0.5249966933317838,0.8807205160035309,1.099376938874591,1.0541034741502093,0.7137803878285914,0.16959691282097955,-0.40526994100266434,-0.8400842479790367,-1.0431164842073464,-1.0253574196352813,-0.8665294357121502,-0.6572972956007754,-0.45801176854422254,-0.29179786289639337,-0.16119024419794273,-0.06480152984374386,-0.0016063039959287456,0.032233613416720173,0.04526776010276685,0.04823958353692559,0.04949394809906476,0.05249231268873038,0.05661953117753621,0.05970987773493802,0.060479036213850444,0.05920447562043569,0.05656765967268257,0.052640740263846346,0.047145923908371815,0.04011987620337361,0.03224028741678153,0.024447761821885253,0.017260669842468844,0.011125013749053711,0.007100971999132873,0.005880598560785506,0.006092959533043252,0.004819855038628244,3.762583432293139e-05,-0.008015217903885206,-0.01722666443916996,-0.024614903214887504,-0.027719154998317206,-0.026141746039211794,-0.0219461647455974,-0.018031551932408862,-0.015918960538744333,-0.015204432021403806,-0.014751564730085872,-0.01383915946202095,-0.01225666766754739,-0.009890610411814715,-0.006585499077584663,-0.0020614179653697835,0.004840119733694603,0.016279543914020242,0.03336113909760998,0.05427321998100066,0.07500817439001681,0.09129782338856518,0.10064213248938321,0.10415900242099141,0.10622222196184365,0.11145563066777138,0.12188555533602972,0.13592295464310095,0.14950254394420473,0.1591911761701375,0.1643270075150428,0.16581151820529252,0.16404530091941846,0.15890468856070056,0.15054621385123007,0.13923628114086378,0.125129520812306,0.10879038541525732,0.09102358320908388,0.07171894570345123,0.04970467853804751,0.02391430511947366,-0.005619738208043797,-0.03685465657101349,-0.06503260769505377,-0.08444679676935428,-0.09254609046668495,-0.0925597110810065,-0.09236753627376604,-0.10017278537660915,-0.11904349450318318,-0.1441841121402702,-0.16561055362506188,-0.17458304517602444,-0.1688262104091157,-0.15241119902911543,-0.1317515192591355,-0.11222361696972397,-0.09677877442635385,-0.0858116405130137,-0.07813688712835919,-0.07234817862954178,-0.06747230477447667,-0.06249473122686073,-0.05541489315736496,-0.04361711499379685,-0.025934708673643177,-0.00431153196467822,0.01643642845849718,0.03067193493879436,0.03486282936452133,0.029277119035685185,0.017310556685549365,0.0038306394664141073,-0.006095277359441148,-0.008622088478452994,0
-0.02374758611175117,-0.02367627432651423,-0.02564254940906065,-0.029744977572170674,-0.03515762119540998,-0.040220145051028854,-0.04225518707187209,-0.03804582139341599,-0.0253160857618212,-0.004280427338549689,0.021269205579006894,0.044446082356839015,0.05801497769521789,0.058062256074513874,0.046774271456332533,0.032054086975809304,0.02279428637391425,0.02328638906410429,0.031643756620868324,0.0425000785808926,0.0504474568107061,0.05209697565490892,0.046826408501807866,0.0364441456887527,0.024184926985140773,0.01321248051507673,0.005030480114604644,-0.0010484802433178295,-0.006705351316673191,-0.012411685797389356,-0.016498849206203564,-0.016805189900683477,-0.013229125884732705,-0.008270507601599697,-0.004589820892182495,-0.002322125484617496,0.0011024966598156436,0.008640026411427155,0.019714986700029177,0.027320954042351436,0.019951380652094706,-0.010785416889393782,-0.06064628243471381,-0.10741160795877785,-0.11272950037330257,-0.032028896257160294,0.16508220821228747,0.46766733826955675,0.805388976523108,1.0594553073229735,1.109397606516178,0.8948769832148553,0.45365528639048225,-0.0908595020329564,-0.5860266796616319,-0.9168963175553649,-1.0460797023692545,-1.0081775880121993,-0.8713077043914385,-0.6969425808156837,-0.5211450756951265,-0.35865097477565516,-0.21590619561671914,-0.09863420384648942,-0.011120497007997499,0.04636629941931881,0.07779833482271663,0.0898303863295597,0.08966484056518104,0.0833430776941032,0.07512438324452539,0.06728493639331445,0.060157754679782065,0.053261583128469465,0.04678009049314159,0.041554977745067743,0.03790114422181435,0.035349735699789865,0.033165227177396964,0.030356815047254352,0.025976498129023338,0.01955873906881162,0.010800867454200168,-0.0002819731982562825,-0.012318924146586918,-0.02233499597846434,-0.02727878582016643,-0.026387980678440743,-0.0220971227087932,-0.018625635991199346,-0.019829057067029428,-0.027274265081332842,-0.03881955480723472,-0.04920613404848827,-0.052948713862327336,-0.0472574020621851,-0.03307325743008617,-0.014060346071610944,0.005380357779231698,0.021865216718078725,0.033818216014226424,0.041506396433023944,0.04692508406447587,0.05273743488727034,0.06074507297639664,0.07184892378847668,0.08660049110836958,0.10472817886775455,0.12431545451046318,0.14206397627851655,0.15501050209376255,0.16212910842899184,0.16432736889338337,0.16354145725098482,0.1619845582298944,0.16171098815274523,0.16433433626122532,0.17030277134335906,0.17786817335806057,0.183172405497738,0.18218863956953713,0.17305177655191495,0.15662344277461535,0.13513806497628839,0.11051686438411283,0.08406453741614897,0.05715694824044464,0.03087233718809207,0.005177279847398533,-0.020700739494548502,-0.04716318251953581,-0.07348006499184381,-0.09817395697165068,-0.11986518346148084,-0.13759358647547715,-0.15110972442126447,-0.16095138126330133,-0.1676814086663966,-0.1713711953904222,-0.17208597877390375,-0.17024491032193112,-0.16640005546557224,-0.16108396628984553,-0.15454732216028572,-0.14636348992543163,-0.1360224127607611,-0.12407853161565992,-0.11187387839221644,-0.10028645258646765,-0.089294755684213,-0.07842954527975603,-0.06763908620116561,-0.057849523971294656,-0.050139033675796314,-0.044456475253576835,-0.03959635678629031,-0.034005661791223274,-0.026434312146205282,-0.01620951551149108,-0.003352886014531941,0.011002472290433225,0.024446043070886506,0
-0.023770072314605758,-0.020731670125051196,-0.016869949149514542,-0.013636411056674513,-0.012381883420169475,-0.013572171736263529,-0.015634663532289185,-0.015000443030316139,-0.007874009529657097,0.007456089487284644,0.029188950686132874,0.05228824768743247,0.07060417585448947,0.07966688890076683,0.07853446760274113,0.06991540671073392,0.05846455368576421,0.04825910099060662,0.04122210188495843,0.037110763689770086,0.03442214250658765,0.03159011689889558,0.02757328374881067,0.021225363912820545,0.010913423781094106,-0.00425915867614461,-0.022854188939809138,-0.0409996103270686,-0.05426058059505472,-0.06017126846132653,-0.05927236682047307,-0.054001141785524294,-0.04683451210492561,-0.039328042348331316,-0.03259252303892922,-0.028095582562064035,-0.027017761186197132,-0.028496858656467526,-0.02938578257927553,-0.02726774077830188,-0.024942050244167343,-0.03112081980026979,-0.05381846684060923,-0.08910913830145377,-0.11137268552510353,-0.07366045050664793,0.07289412139733815,0.34388909693816483,0.691469383654979,1.0043897458328601,1.1491351962156937,1.035909190143818,0.6707799130940565,0.15841271610305707,-0.3481401976067851,-0.7190139119967545,-0.8982618553218091,-0.9084108987777142,-0.81470059405914,-0.6793849405208201,-0.5367932007981338,-0.3973971587428178,-0.26523004053610816,-0.14909492378432446,-0.060454296388401635,-0.004427173030750565,0.0241851519749259,0.03600045175466769,0.04040475794201993,0.04285227129576869,0.04522680768295028,0.047389345223884,0.04911773803315778,0.0510080197102177,0.053218777187273435,0.05412455556058485,0.05127379920300956,0.04325896344791336,0.030934880494367645,0.01747920205763231,0.006364291090430312,-0.0010660619872201807,-0.005727481572037899,-0.009136313089409938,-0.01181468633560446,-0.013040815423757674,-0.01232242109204481,-0.011016200420026118,-0.011958826996986568,-0.01724955917373702,-0.026543159344844764,-0.037313968497646434,-0.04626794532088273,-0.05085697449279223,-0.05051588891486194,-0.04681502049108695,-0.04220282296042316,-0.038650273261770875,-0.036651207173828214,-0.03439615982435636,-0.028728044431373317,-0.017707724140309238,-0.0019324193143726359,0.01627789886820223,0.03439610822196043,0.05102774278875427,0.06674763209848272,0.08327878465752891,0.10154096120030351,0.12104300939163222,0.14082033048914575,0.16012552272586472,0.17816334416783197,0.193929285774878,0.2066460796599363,0.21591069685821002,0.22164387360238194,0.2240397496529998,0.2231575033237766,0.21877851472793822,0.2105504972727435,0.19805598171290725,0.18127085218922817,0.16049684448135218,0.13530962527449814,0.10472395566835904,0.06904452563223001,0.030796590950244354,-0.006401391833559408,-0.03940020357634209,-0.066212391237071,-0.08630084163045634,-0.10098511637515216,-0.11293034025591582,-0.12419147885083602,-0.1347903179780072,-0.14318786640802672,-0.14764378950010207,-0.14752165778439524,-0.14400204067165828,-0.1395110074605033,-0.13616254164500263,-0.13460944224226928,-0.13422897079653537,-0.13390447464631336,-0.1325761178876982,-0.12983121075722623,-0.1261347643644316,-0.12212851183820504,-0.11756334477908124,-0.11054949443300713,-0.09843123634855855,-0.0804202589831862,-0.058791293098667416,-0.03756622023925067,-0.021021847660858347,-0.012108206321012109,-0.010528863449844838,-0.012871835749172413,-0.015123826958355346,-0.014718349593352727,-0.010822732473730778,0
-0.0071068821760989845,-0.0022448797240692425,-0.000563571139409789,-0.004920750384566103,-0.015090887139708603,-0.027325749670209305,-0.036460657120542445,-0.03824999520907998,-0.030719398520513405,-0.014978304133011192,0.0046973324987243026,0.021940549435444663,0.030838887235405323,0.028996918025403925,0.018793824767919347,0.006339985543282717,-0.0015786032138650511,-0.0016127512181619323,0.004608249193256103,0.012806548529631975,0.019228895537915004,0.022558861912000135,0.024066628034358137,0.025469279040540454,0.026381080972688837,0.024505701162369387,0.01797165506335637,0.006867076437610842,-0.0066852776862083105,-0.019093747570264444,-0.02684052538406706,-0.028625924837537998,-0.0258805768234234,-0.021168241734147733,-0.016479616823510797,-0.012660686641102275,-0.00932636590837031,-0.004958726613374251,0.0012322441171933813,0.0057835954865780295,-0.0004200016092708223,-0.028557559447238128,-0.08384982662961067,-0.15527057518449724,-0.2075276794443249,-0.18409877497005972,-0.02902189668348392,0.2768692756080569,0.6840237320338518,1.0708474489334463,1.2839446646461674,1.2097443391811935,0.8374464869854632,0.2723407982501228,-0.3120463084519296,-0.7551832953464008,-0.975411826238797,-0.9855468517212338,-0.8591001522787378,-0.6781820447370367,-0.4980178976172933,-0.3417931590349546,-0.2149517868934242,-0.11907546667812932,-0.05485344443042722,-0.01867476377244371,-0.0015511688094645495,0.007278966148830737,0.015405202892190217,0.024965305633981957,0.03418835719149481,0.04047622637843719,0.042425667148776075,0.040316710790449246,0.0353836014072308,0.028814147114898273,0.02167578562829991,0.014937744183690076,0.008854286301781096,0.0029197043549294907,-0.0033971797805425197,-0.010099491567380669,-0.016479685612498646,-0.021447167732268867,-0.024603424485869208,-0.02704966933295167,-0.030564946073114982,-0.035725935685009244,-0.04116971607084667,-0.04484351813690576,-0.045447268725428466,-0.04270462041604131,-0.03725198296937641,-0.03067684916302473,-0.025032473456362926,-0.02170302924695788,-0.020491709537494865,-0.019644488577554808,-0.01704769850070814,-0.012046240745932048,-0.006182016933266473,-0.0014805789550294442,0.0023464690007722515,0.008423495041480444,0.020448354820023537,0.040206722132970295,0.06618291855536325,0.0939622649466626,0.1190117222956039,0.13939938400236188,0.15575869061043718,0.16975607138840026,0.18280335833543063,0.19523174136133287,0.20655461046490334,0.2164587633896187,0.22514545464659247,0.23261134405423506,0.23732413532287464,0.23578924688280217,0.22450689041733576,0.20274898803466332,0.17312473612065657,0.13994386466383923,0.10745583427969552,0.07833518708469434,0.05208045025328328,0.025248153697605517,-0.00543976600228855,-0.04011635025605455,-0.0755362831322468,-0.10718345847749128,-0.13219214085735634,-0.15069704740180426,-0.16432074331160007,-0.17391486886961602,-0.17908595435406224,-0.17920683888340036,-0.1744548195804428,-0.1663033332040729,-0.1571972379130954,-0.14943864482618843,-0.1441249313759156,-0.14063678100037774,-0.13650107623251703,-0.12837134241260256,-0.11412261880022961,-0.09417041175985767,-0.07153592021538349,-0.050943461890214786,-0.03652044830431418,-0.02950225432790317,-0.02782692085705794,-0.027551939027042675,-0.02535692830811341,-0.020212502830353897,-0.012717627498429855,-0.004080383971243041,0.004082062278558441,0.010451417581032543,0.01458410584077241,0.01636123471768943,0
-0.016533697155763423,-0.016173673090422693,-0.013520017322570818,-0.01132100262404062,-0.011995025754765012,-0.01600264736801289,-0.021170915142334285,-0.02295717951161456,-0.01643382356527966,0.0003006132373833764,0.023609117807977923,0.044973189232202754,0.05504331251000312,0.049443224844207934,0.03251447138439483,0.014836517808101324,0.005732569435440469,0.007561977458162327,0.01607315009517326,0.02448786329385567,0.027593192258764068,0.02432181418302358,0.01742825949667677,0.00985833467958628,0.001492205950835485,-0.009774731894587722,-0.024167208148834024,-0.03789782444812064,-0.044838127767305336,-0.04076936550111877,-0.026870130741043875,-0.009338382203355058,0.004339733779413508,0.008820047296148962,0.0023934931536464202,-0.01233577569701991,-0.029059151005852914,-0.04025581454934812,-0.040565829160471516,-0.03107483550154603,-0.022919477321401736,-0.03415632461134231,-0.07544989178060592,-0.13066815776700735,-0.14865078766716142,-0.06029048281628592,0.18083060869554093,0.5550004767559134,0.9598844779373692,1.2415152224256711,1.2645153609713846,0.9830125461336578,0.4684456032428684,-0.12383801532345867,-0.62790863900778,-0.9365483256421916,-1.0311024488469371,-0.9633591052463477,-0.8101236680372705,-0.633913748808083,-0.4685492311740379,-0.32533442949584146,-0.20578584335853606,-0.11008761556827884,-0.03854536278762077,0.009989897624604241,0.03862742638901915,0.05179406957029933,0.05453801837407233,0.05178459962717986,0.04762502939963028,0.04491701168698273,0.04499357091171311,0.047699487522889154,0.052112708988169595,0.05641158725624637,0.056602857478902834,0.047710280028675334,0.028233404965647736,0.002940213399477063,-0.01920816790100857,-0.029836090364117065,-0.02579440691384731,-0.012065691855051033,-0.00017837540959752402,-0.0011415627740565901,-0.018033990845772882,-0.04414378900831466,-0.06714536004959383,-0.0764656524934738,-0.06956879444499223,-0.05272015718810457,-0.03594667841123845,-0.0271713047089345,-0.029735770509574065,-0.04198737718729291,-0.05728795902806999,-0.06664367851379528,-0.06380248164157247,-0.048101830801163904,-0.023486281850393066,0.003601943820076864,0.02711857761999928,0.0449695831064461,0.05957241743924433,0.07475149742426179,0.09265246767941702,0.11246534624856433,0.131425365979835,0.14834371472362395,0.1661536296674749,0.18944842961027258,0.21903720304608773,0.24927905484418122,0.2709310914970377,0.2769507511882772,0.2667158655405122,0.24636785592812843,0.22538444780293831,0.2111822706905377,0.20534644327214643,0.20358137212524077,0.19824590286794197,0.18206070238593475,0.15174379065507063,0.1092762599171049,0.06016041922666533,0.01087766367298891,-0.03314746308945786,-0.0689800830144737,-0.09633044369211449,-0.11664257862279073,-0.1322249267095532,-0.1456200836278209,-0.15870943834222612,-0.17199918889683458,-0.1844116129899109,-0.19306291399979664,-0.19417601306848045,-0.1859529506183234,-0.17088337636255843,-0.15484741617732506,-0.1435405695336304,-0.1392723078636348,-0.14054322225353985,-0.14362215877445558,-0.14429921181709973,-0.13949121560232197,-0.1283133261207285,-0.11196460574373296,-0.09304034254818869,-0.07459827265557895,-0.058773060374899565,-0.046024034055544935,-0.03589372859620664,-0.028132194219450672,-0.02261222282290833,-0.018538394336217005,-0.01457365294848589,-0.009498775853957035,-0.0022816573812662368,0.007529367266711908,0
-0.006949708147012934,-0.017685310582778314,-0.024078045636603443,-0.028039297659792635,-0.033249691780625666,-0.0421385864797764,-0.05321820591747413,-0.0603048119176077,-0.0554822645349963,-0.035087429221372715,-0.004334216601096903,0.02374305038316371,0.03591091224181239,0.02807438072461886,0.008797656252273352,-0.005820687430692061,-0.0025960872074416138,0.020035912086142933,0.05193835928191031,0.07880664922463049,0.08972386794749922,0.08108426631421518,0.05739156018627292,0.028426530845113016,0.00412778876220588,-0.00896054711665818,-0.008936266256989234,0.0006473627022098773,0.011241498763315084,0.012919158644944499,-0.0004394551111139302,-0.027533576264876417,-0.0596773347170032,-0.08507783067282798,-0.09468282543524918,-0.0857160645522254,-0.06171453545772151,-0.030101411825891877,0.000193256483304669,0.01897774808276661,0.01482006219435146,-0.02186391927557445,-0.09233958506909638,-0.18122545353293842,-0.2500942790585022,-0.24106134111061342,-0.09752494430193388,0.20187033109061098,0.6131953403959606,1.0221210322539978,1.2774519946193879,1.256920397588793,0.9318004087221206,0.38923660765992446,-0.2041759248616068,-0.6781508851532639,-0.9315863263465501,-0.9620896462664555,-0.8408878472526712,-0.6586536180659975,-0.4808440215852379,-0.3342512173242073,-0.21957758160720645,-0.1306807659902312,-0.06508115591681786,-0.022198804433083193,0.002642533507647999,0.018277211285000955,0.03200875017424486,0.045262830818159794,0.05408930928026435,0.053595597826972805,0.04272934700689546,0.025484333737417975,0.008458692218111456,-0.002901138119164679,-0.007340664243079654,-0.007482701623715345,-0.005992602934352536,-0.002816021365290442,0.003226410830202371,0.010811675816192991,0.015293134392069554,0.012372734405134329,0.0021709845999764617,-0.01093160694424483,-0.022129583710746636,-0.029898977298825992,-0.03663520762694541,-0.04592650071131573,-0.058589886028895546,-0.07107622872417044,-0.07818150791346343,-0.07716878978677877,-0.06950896910295733,-0.05968601720037709,-0.05195489728636087,-0.046827402598904666,-0.0408047122438943,-0.03080524225951048,-0.018329464536377446,-0.007998071591362546,-0.0026499414584685394,-2.016201555969828e-05,0.006415810313491454,0.02222583327708525,0.04731262643034934,0.07658554922210806,0.10389464620023514,0.12609658171412197,0.1452399954740636,0.16599526970577025,0.19043263137094837,0.2160484427037764,0.23839840587556485,0.2548584861950867,0.26594103445834333,0.2734380105985743,0.27767188919282937,0.27654449652960517,0.2668894093005713,0.24696179825638814,0.2183573012805814,0.18545316383300556,0.15232796630148565,0.11997885639438458,0.08681546048052699,0.05165783459011251,0.015288608221144022,-0.02086036281824913,-0.056174625359323105,-0.09017477415588068,-0.1210807152813857,-0.1461833356955114,-0.16359125726606516,-0.1733529409402742,-0.17736748729903767,-0.17820313097868254,-0.17766023543165915,-0.17663090990592936,-0.17605101146776145,-0.1774553754045733,-0.18202349867436962,-0.18824316944814629,-0.19103266161764565,-0.18440538358376926,-0.1654907214614236,-0.13665014321582833,-0.10452676283787343,-0.07679217481789384,-0.058451765957901795,-0.04988462097848176,-0.047674208070652604,-0.047157562444803895,-0.04487785795710375,-0.03978596354241755,-0.03246458629237604,-0.023473338358723245,-0.013267103927973214,-0.003317376670953224,0.004187658370388394,0.00817647268917849,0
-0.011805926301733473,-0.011137448177456407,-0.009754271359990647,-0.01010753382259872,-0.013453126143483419,-0.018277259437602757,-0.02095241463923625,-0.017828070564542324,-0.007298441180636205,0.009021925127518645,0.026725199830766305,0.0402922867973497,0.04534025467131981,0.04042319656198288,0.027521906872280275,0.011561180806982773,-0.0012451536177922004,-0.005910679146552851,-0.0003417209499491985,0.014063355262066375,0.032618262642342626,0.04893681087653447,0.057273718142552575,0.05440563455047572,0.04032259817089109,0.017731709498858706,-0.00851178311988514,-0.03233980062598622,-0.04868959054919532,-0.055379238446171444,-0.05326059212005631,-0.045044958505281965,-0.033739354824971625,-0.02204454803248096,-0.012457538724608183,-0.0064938873314904135,-0.003332948152184584,-7.070765937151457e-06,0.005678259647628444,0.010941017779096058,0.006275879844793192,-0.020177881553731757,-0.07192116157061086,-0.13221488020356525,-0.15984438224136566,-0.09992874171983476,0.08920696906082283,0.40293037560256206,0.7706331332347061,1.0678514410157491,1.1640102317137018,0.9867449062309964,0.5651951419693182,0.021757369593142464,-0.4844617357635119,-0.8282300184095938,-0.9631883631074838,-0.920920102426912,-0.7740477350724847,-0.5932080716664897,-0.42288184610594937,-0.2806717374426447,-0.1693314146292519,-0.08808015589187215,-0.03556443035427455,-0.007281424538907684,0.004989083785962016,0.010060300804777801,0.014121537037999204,0.01965620737340837,0.026069805871706597,0.03126977144850066,0.033428371590931594,0.03190656312025894,0.027361296057609646,0.021543599616032635,0.01649065492438801,0.013216029412495712,0.011135832706313322,0.008799354140746582,0.005101632671531475,3.1590691141503147e-05,-0.005521601692183339,-0.010592589917926866,-0.015044063322535708,-0.02003597637430766,-0.027158852902683196,-0.03674642659913631,-0.04713693484763594,-0.05561133272768392,-0.060069909077808764,-0.059892900561517325,-0.05588042635951508,-0.04979576487841881,-0.043641170706971565,-0.039025966676845755,-0.03647443572847797,-0.0347395845457437,-0.030987576746219762,-0.022124990884468503,-0.006839049637585308,0.012980504069741732,0.0335172479305846,0.05220384278698112,0.06891742314911922,0.08459360168094664,0.10015936709591884,0.11651322487714141,0.13455780430259756,0.15478979726946696,0.17645095108882625,0.19743312716395578,0.21530463713582979,0.22821693369216037,0.23564864314477302,0.23865304503543525,0.23862710846055346,0.2362819255846114,0.2321890547654605,0.22701637575308878,0.22067409986709596,0.21171977211489357,0.19727712096213026,0.1738649243491431,0.1393553221816786,0.09444604392518327,0.04289214811857889,-0.009465377954332867,-0.05700059934339244,-0.09642947822718669,-0.1270957236932838,-0.15005607486171255,-0.16716936766632495,-0.18004322468361708,-0.18905831467063774,-0.19355230975319856,-0.19291682937735422,-0.18752115114981638,-0.17900407046755926,-0.16958210055524714,-0.1605577773362238,-0.1517076242329355,-0.14271787028787086,-0.1344166585737329,-0.12741293062858766,-0.12043784374239042,-0.11139229482826782,-0.09948248328099099,-0.0854120769634001,-0.07025848421554612,-0.05522987212214644,-0.04180237564889553,-0.03106915765465317,-0.02314127525686312,-0.01750629542344811,-0.013727906787334574,-0.011489484294478599,-0.010127552481080798,-0.008184083547844258,-0.003552407913536608,0.0050666626917879355,0.0166533295353582,0
-0.004923700988134239,-0.007123042518537858,-0.01049294474973413,-0.013419849885489329,-0.016406962478405646,-0.021166476100579628,-0.028813987276419248,-0.038395093876080325,-0.04552707684497513,-0.043285663189518646,-0.027063596374077705,0.000853576238991851,0.03173684945638944,0.05509934883244524,0.064044265574653,0.058363402160160074,0.04417249428888656,0.030343498706892465,0.023268901152020842,0.02341838682074805,0.02669419117029202,0.028758012971337864,0.027555693801358045,0.022797074478992995,0.014943029518107552,0.005380682145424617,-0.0031855095402283434,-0.007885327943065686,-0.0079925035041793,-0.0059108835692485255,-0.005360153396929165,-0.00839983588951743,-0.014116918949938849,-0.01958409982653464,-0.021965346614954077,-0.02014521760109579,-0.014656786330804888,-0.006845196342490348,0.0011159618494020296,0.005069228937112519,-0.0020119498544616875,-0.028234448399018064,-0.07775451161006025,-0.1433188736375561,-0.19789081111696433,-0.19281039030328465,-0.07320761484174698,0.18978252236363036,0.56599282907882,0.9544726348611583,1.2107735419016137,1.2106000688621492,0.9162297417213897,0.4028294785623793,-0.17308052512248426,-0.6455431887864755,-0.911128821636672,-0.9604321959978112,-0.8564129181295158,-0.6837189218262393,-0.5061696570708956,-0.35302510472652604,-0.22936226301116386,-0.1326703360832255,-0.062123685917886,-0.017973431601698415,0.003487270834831503,0.011216712806674557,0.014783938027317395,0.019462687979738796,0.025519531670993918,0.03083946104199789,0.03394501843519872,0.034952886391030016,0.034361325085848375,0.03196270502557033,0.027383644715508762,0.020995701219606953,0.01379371162328306,0.006845826041897245,0.0008769432397020688,-0.004249537974969436,-0.009685394771359504,-0.01691569000592639,-0.026568645754288057,-0.03758465406238224,-0.04761233746027971,-0.05435058555920372,-0.056578949077000604,-0.05441371045994644,-0.049463955526233824,-0.04444600519970006,-0.04146374410834866,-0.04042113254474005,-0.03940183145101526,-0.03667710931504548,-0.03209512126707621,-0.026519656930356683,-0.020677897706636646,-0.014772457468134348,-0.008521857664021786,-0.001170005767710586,0.008135277440774101,0.01933318029909816,0.031151388108192173,0.04254682384523756,0.05384248285659976,0.06599480092569679,0.0798966823184266,0.09649814701418184,0.11612433596854706,0.1372328425010865,0.15655577550126482,0.17102079226609498,0.1795966400265033,0.18347693944452417,0.18509948576395516,0.18665697132866121,0.18878173198048154,0.1908138523018709,0.1917593814753445,0.1903587552028319,0.18531245582480374,0.1759352862503128,0.16203844462961464,0.14324114294866816,0.11876693263067929,0.08802652771700045,0.05153342642730676,0.012034692639095027,-0.0248265019422367,-0.05217860321426495,-0.06585742298205269,-0.06793927996764218,-0.06722470781792039,-0.0752621860421619,-0.09958310657227282,-0.13852758775799381,-0.180790826568132,-0.21102572280316378,-0.2192300887623705,-0.20634542921831794,-0.18158474953515888,-0.15563789685042345,-0.13552646389093645,-0.12298352246687504,-0.11571328488369412,-0.10978670327755004,-0.10176251880733393,-0.09013049474053351,-0.07561941635484024,-0.06053068713446832,-0.0476874147682522,-0.03891253134039782,-0.03364055352742912,-0.02928750173747783,-0.023387769250964602,-0.015252885370920913,-0.005774401019596392,0.0037664556161497824,0.01248007816664326,0.019975309005993983,0
-0.005187933060192985,-0.00044266769543099046,0.0005681185773670251,-0.003964577193740015,-0.014412804241223933,-0.028990983657449235,-0.04337742990052953,-0.051528339217423294,-0.0483483151122433,-0.03306533617459456,-0.010255790826432389,0.012406351196877021,0.027587093704927144,0.03159779351145623,0.02634289013321206,0.01821659728317552,0.014590537664505543,0.019925752383506197,0.033356464246903396,0.049200739087277644,0.06024755025772997,0.061889129373181515,0.054191185660432926,0.04059250108694308,0.025156459618951584,0.010917877338901715,-0.00045632239653411967,-0.00880091093724921,-0.014920784913519208,-0.019229956558907066,-0.02130657642232485,-0.020680134455037878,-0.017608550467379556,-0.013220389325108115,-0.008937010656148686,-0.005485184398260141,-0.0023087310802194618,0.001612164607102552,0.00553367749106243,0.004680044326573026,-0.01023698749128303,-0.04923520175843389,-0.11342331925136162,-0.18292653432145534,-0.21131187229464812,-0.13663680816616566,0.0869727994768375,0.4487850171412648,0.8587848053994095,1.1682859074726482,1.234315941987928,0.9942783826150815,0.5042222400568981,-0.08497500298008724,-0.5995127452912883,-0.9189973916425989,-1.0145669923090157,-0.9349264483094774,-0.760517770300199,-0.5608077085817404,-0.3769456518261303,-0.2269416694350908,-0.11685468355607212,-0.046902953036824596,-0.012021289015276333,-0.0012795693735517324,-0.0004237848090070731,0.0023003476902927478,0.011321630214264466,0.02369869576061155,0.033161958778517395,0.03497636281818903,0.028921876302510093,0.018824537944914316,0.00962496713060653,0.004658801267834179,0.004205785233710065,0.0055476969672446814,0.005106458105194726,0.0012480866809433666,-0.00504794177890807,-0.0116541008012713,-0.01671248231757162,-0.019308747074058635,-0.01962880687867355,-0.018340573889848538,-0.01552950686125412,-0.01077304771409306,-0.004574198911009382,0.0014088631273608352,0.006000871117975662,0.009364345525109305,0.012062889261308914,0.014240006014612294,0.016006089627697083,0.017884509068893707,0.020673699079309882,0.025093675285911905,0.0313662251145545,0.03908488543116883,0.047200885608177826,0.05384408538123627,0.05697769334618239,0.056275487849963654,0.05443753692886185,0.0559769766475832,0.06396378197874383,0.07760535034832536,0.09294426473523526,0.10567207796270639,0.113307381969948,0.11583141592778978,0.11566396728956956,0.11703072891651595,0.1239227386439418,0.13751615094478353,0.1554534545317058,0.17333351928999166,0.186485164892669,0.19115759915486877,0.18538910075184792,0.16965909460507517,0.14671579234185134,0.11937809208153666,0.08827786826660883,0.05302016949216548,0.014813987388253985,-0.022885684409439742,-0.05545488539866447,-0.07937743582255646,-0.09476464814670407,-0.10552259037801306,-0.11632722193762826,-0.12904883045844698,-0.14215645588037706,-0.15276132315158034,-0.15849170522247447,-0.1583731669040628,-0.1526798604573146,-0.14209623755719772,-0.12728079631960296,-0.1092798978370431,-0.09029869350931173,-0.07326264831624443,-0.060107521941816185,-0.051054050762839594,-0.045063696343898355,-0.04009688828029048,-0.033636356393009915,-0.024287185964511803,-0.013267174836693813,-0.0038537112004577174,0.0010723800957712897,0.0014307394136631613,0.0002463577763172197,0.0011173115909549579,0.005308135497993499,0.011430669165491004,0.01697395133544075,0.01967883635800195,0.018840319428043883,0.016276621588416605,0
-0.004115944657005146,-0.003521098376578321,-0.002308780016800473,-0.0035332245929792895,-0.009182244025462246,-0.018692458285203297,-0.029134106976287103,-0.03570119684653415,-0.03273604258678077,-0.016534667859910566,0.011502904768040419,0.0439291338866193,0.06990725923976447,0.08066166521422402,0.07424531519886371,0.05655449045723546,0.03813009712345941,0.0282239385478282,0.02963590632601024,0.0380900128029458,0.04628170675935162,0.048959438267067605,0.045195356083991924,0.036877296455521916,0.025710198859871553,0.012109595378942968,-0.0030274828420026826,-0.01694032882943094,-0.026604532277341053,-0.03095000429411026,-0.031066432389703552,-0.028930495699709687,-0.026349620347104485,-0.024582050561898494,-0.02356361166934465,-0.021581648003347557,-0.016929560917378027,-0.009434038382512873,-0.00040372703718057415,0.007079656394057231,0.007487243225485102,-0.005827720674154863,-0.03617449809543307,-0.07653336814379012,-0.10300279013163005,-0.07523582641332623,0.04917774747206956,0.2867562263107331,0.6001314658764731,0.8922232280902861,1.0379860867854764,0.9445875240389825,0.6050788263310658,0.10923789099634731,-0.3968604897202026,-0.7777569504207047,-0.9632017190353508,-0.9618329155290231,-0.8338270176438812,-0.6491279679663164,-0.45928022513087263,-0.2916702052220882,-0.15758382428669765,-0.061030271427492185,-0.0015328227457039947,0.02696831957371628,0.035711485483306105,0.03703750871396895,0.039331284651990296,0.045061596879233036,0.052423804569638945,0.058170666190872945,0.059924659728962146,0.057247456819147516,0.05122552611763415,0.04334991007849709,0.03477145375178906,0.026410256086678022,0.01946800649138552,0.015297622027935939,0.014367335395133851,0.015364071677288857,0.01578118544492817,0.01352656677847982,0.007855924644685833,-0.00043135411679407626,-0.008957026908017867,-0.014711053052126817,-0.016271437327870966,-0.015111453516551812,-0.014243571281141586,-0.015803887621516594,-0.01986904933177179,-0.024784045164844806,-0.02843324260875109,-0.02966040885216366,-0.02861563263302834,-0.025976259497013803,-0.02214949095289648,-0.016692089191294487,-0.008392919656455182,0.003374399283935764,0.017658477430193435,0.0324617085529201,0.04575972732490796,0.05666136549587789,0.06624108238806523,0.07654638032510949,0.08868513701791561,0.10238132437584119,0.11668483782145432,0.13045459364383233,0.14263549244495607,0.1523885802700443,0.15915164304378657,0.16293357190522767,0.16439976033737,0.16460967195212772,0.16458720246908629,0.1644233402042461,0.16272545869452631,0.15736756693787668,0.14639274220370757,0.1284667617098975,0.10355099669153103,0.0731524405292837,0.039874649508343116,0.006773737269581616,-0.02357332454138327,-0.04977832051362374,-0.07158262694352163,-0.08943114796494175,-0.10414734244021795,-0.11638839545550117,-0.126212508522847,-0.13376376847660132,-0.13972963494870722,-0.14434345594198766,-0.1465402712430524,-0.14442957796929162,-0.13685187889863595,-0.12489303201474414,-0.11155449226313419,-0.09972790249881774,-0.09044155456149018,-0.0826948209713807,-0.07492291137219628,-0.06657347860060381,-0.05806150584264119,-0.049596112141179156,-0.04058711942176812,-0.03049361533631282,-0.020103494898683356,-0.01112813964539021,-0.004799421181994558,-0.0012955994172708565,0.0004010080889673695,0.001845442577114241,0.0037576174214290613,0.006014154872458847,0.008848118667499062,0.013059264819263176,0
-0.026334264277852976,-0.02793151454808875,-0.02741614410652464,-0.025566673002627785,-0.02518245104701225,-0.02977579851143924,-0.04048630085011594,-0.05398948443853203,-0.06341721312534257,-0.06165805834410712,-0.045521202630824646,-0.0186653844042979,0.009360164751713338,0.02840465954997348,0.03394465802262303,0.029756634605443113,0.024879059382400634,0.027158766997915848,0.03847777010027245,0.05476077684863775,0.06963956893397272,0.07823307585414228,0.07866792492511568,0.07164850377766875,0.05916860290111721,0.043188739760808906,0.025551391449964732,0.009033802172652757,-0.0027135625555576295,-0.007335798880152818,-0.006012628616766679,-0.0030095778824212587,-0.003121758474494748,-0.009461841798786907,-0.02171043079673709,-0.03519512356493862,-0.04240485849136009,-0.03689821178478863,-0.01798589369064431,0.006586310039305458,0.021883385933952997,0.010740182786913336,-0.03763552757967486,-0.11641705129691392,-0.19177330728924372,-0.20377616509671576,-0.08683759884079727,0.19144565720902854,0.5914598169665463,0.9912550714296298,1.2259962263069148,1.1670553964058394,0.7948745847833631,0.21695885868072703,-0.3824910232291878,-0.8307303889948126,-1.0397814915785537,-1.024993993420789,-0.8677248980350256,-0.6576643622025737,-0.45481688549461674,-0.28478275599263697,-0.1535624237741401,-0.06148514383129375,-0.0068488824140074366,0.016925102136828685,0.02215045791660631,0.02226341716734432,0.02581385432398034,0.034452469938124314,0.04519463535999456,0.05365360834856892,0.05651103548662558,0.05320711501752581,0.045924356703375045,0.037861413902357394,0.03178449471219509,0.029315567826515718,0.030259818914430765,0.03265227489914796,0.03386063581416431,0.03174999776920926,0.02545595613243878,0.01595744915542854,0.005752131301132313,-0.0025605086832548984,-0.00718580955112178,-0.007211693098979668,-0.0032087804122868293,0.0023964721315841977,0.006620694562316264,0.007403111440739448,0.003990620615300533,-0.0027527083467351037,-0.010187603880668174,-0.014982786702434709,-0.014993631837030492,-0.010188676566676953,-0.0020403710617934627,0.007379881535185578,0.0160141534870652,0.022383575230245513,0.025863079517703693,0.02681037866389079,0.0269678803135711,0.0296067512495236,0.038382129754062605,0.05483493069627856,0.0764224834383552,0.09733824493073483,0.11185514527618937,0.11735553135577408,0.11495431750631549,0.1083139874766274,0.10167310291297338,0.0978063141612894,0.09728970336613357,0.09934226015591231,0.10278704855872423,0.10576105147918609,0.10491887699984229,0.09662225124730811,0.07971039450906513,0.05603927335556477,0.028544403739290625,3.701175141528762e-05,-0.027252200012421825,-0.05201819632969645,-0.07285623126421101,-0.08773371733423771,-0.0959415767062096,-0.09959398814695647,-0.10261701074749105,-0.10846891164333361,-0.11778392164343185,-0.1274944892853518,-0.13243870892329077,-0.12816230879339244,-0.11320493718530861,-0.09011323601655308,-0.06444596683526153,-0.04174585997319433,-0.024880041274332597,-0.013750725216641634,-0.006505951382098282,-0.0010420168033357371,0.003851023848740689,0.008552892383492102,0.013306256811258453,0.018090631833083164,0.022450392837975175,0.026033574542966023,0.02844079365471757,0.0286450287370979,0.025859104691650314,0.021043556092856235,0.016580741319029937,0.014427795533004502,0.01500125551737077,0.01736383041525833,0.019796977417702515,0.02013836086343646,0
-0.0014822537161391786,-0.0066560746446427625,-0.010477093963763687,-0.01354432079528335,-0.01719743393577366,-0.021929157638758558,-0.026788560661408292,-0.029604294462125907,-0.027287099441257748,-0.01745575647360449,-0.0005880327713507401,0.019905786776496077,0.03902808240261462,0.05200095128505845,0.05669900738218502,0.0547368258184384,0.04992561556927434,0.045736113417657036,0.04394054362248191,0.044783921092391356,0.04703783709804778,0.04798273679440949,0.04491181698645643,0.03688867450129471,0.024656841080034027,0.009365799100954513,-0.007589321594038092,-0.023294680517766488,-0.033923469924980076,-0.03782360826233623,-0.036737592698531996,-0.03394545358936756,-0.03214830052258651,-0.032639928907409396,-0.03525100542873596,-0.03797295931559842,-0.03698959197856166,-0.02894175713627157,-0.014622899177914053,-0.0008680780545748286,0.001342952975512559,-0.01838152446261943,-0.06308676471589222,-0.12019880586995416,-0.15610824483262836,-0.12100227324984832,0.03067670493457581,0.3084461076339404,0.6599547945087898,0.9723126482067925,1.1118603897754693,0.9890027473064988,0.6099571747903872,0.08102444968793743,-0.4385999640844424,-0.8091066935930592,-0.9665324011419277,-0.9327496644371486,-0.7812809181599312,-0.5896608196852406,-0.409184582129962,-0.2612735551973741,-0.14931770354876267,-0.0703931535682378,-0.0197323666598145,0.00942835094921575,0.025281176256819936,0.03507064209934393,0.04317942244427948,0.0504734067652963,0.054988258379217766,0.054330967391226656,0.04833636223272039,0.03992153552031564,0.0335000759510232,0.03205970348768962,0.03508716565372762,0.03888823754370077,0.03935207152035246,0.03510973687764842,0.028247893562974254,0.022060654965765186,0.018069819156081857,0.014896243931579256,0.009838272279568329,0.0016560061736908237,-0.008164129953185613,-0.01651924106850556,-0.02076086251564828,-0.020391352200281217,-0.017233230188750653,-0.013630936424165222,-0.010734683347459334,-0.008973540365218937,-0.009206277205199388,-0.011922428962773101,-0.015469177548268901,-0.016553296276407857,-0.013120725920306671,-0.0061175791070227446,0.002096316493502691,0.010937583762905436,0.022593923257353724,0.03965508828666117,0.062062101433090565,0.08615595873150875,0.10651779774739951,0.11898233844545793,0.12275939350167452,0.1210938180011309,0.11948476904458413,0.12164506300465325,0.12735466746659332,0.13460481630194557,0.14235266082364093,0.14993612058060646,0.1545317220480662,0.1506912148283912,0.1336231726421619,0.10437465136149313,0.07227010669909142,0.0504857122299139,0.04697390891703286,0.05853237199591543,0.07273403000663485,0.07515097098420417,0.05690652350759358,0.018534027529927374,-0.031761816561479875,-0.08231278287775504,-0.12132302138160492,-0.14028458100738916,-0.13699302575856523,-0.11619972693292499,-0.08835257283513431,-0.06610745678985039,-0.058471653989635414,-0.0666233897923739,-0.08503571036012508,-0.10570931814451075,-0.1212383421021452,-0.12641494136379833,-0.11979068113966382,-0.10447937716916647,-0.08716305446367154,-0.07481931172320165,-0.07045488142593849,-0.07185227034496264,-0.07436261587490628,-0.07414096354862526,-0.06975490721209138,-0.06216546261884654,-0.05345438449990448,-0.04568415110543876,-0.04025321483593988,-0.03756472774784112,-0.03706930668042771,-0.03692211945735638,-0.034037505934353625,-0.02602429111373082,-0.013301032163336678,0.0011788220989186991,0
-0.011761356903773163,0.01073179402812813,0.02973297442984988,0.03536039858215005,0.024068883645372106,0.0014500880676967826,-0.021148509743550814,-0.03343512267338929,-0.03116453195561998,-0.01696557536127591,0.0024824672732630276,0.020516046336420114,0.03311474113841227,0.039559222904762145,0.041487915132894515,0.04111595304334815,0.03997760648587133,0.03849001927727179,0.03632659586832508,0.033513469258619304,0.031033466625017134,0.030211146830514787,0.03149336724363407,0.03387538920935642,0.03540666801426883,0.03383055192424123,0.02734444610845366,0.01584845285863893,0.0017153513607140016,-0.011146156237596775,-0.01975303202951007,-0.023582162560705354,-0.02378401867200016,-0.02186256627181942,-0.018943969120100622,-0.014960755197703358,-0.008342292476535075,0.00226956592184628,0.015142923407411815,0.023986804441610755,0.01889850662626763,-0.010010861782664027,-0.06559192546186093,-0.1338637846770662,-0.17635419209030526,-0.13488073717800414,0.04322154309947927,0.3658975081199025,0.7662908174765279,1.1089746843575696,1.2429728930216517,1.0789173286954923,0.6423981337226481,0.06633205943685601,-0.47326686454594036,-0.8377947932504758,-0.9771056373358691,-0.9277861222485312,-0.7702589025117302,-0.5802727146494693,-0.40428106816028603,-0.26138463706479864,-0.1557633686845374,-0.08573973617421425,-0.046191664363875326,-0.028269564915633774,-0.0214967257352339,-0.01801383371676383,-0.014797735399982952,-0.012207026227174386,-0.01099608518553755,-0.010617186310042558,-0.009454551155526021,-0.006046648082899352,-0.0005017653663982324,0.004656539315392835,0.005429455951589075,-0.0007910214701892272,-0.013122038607048962,-0.02794270822631438,-0.040982089851510195,-0.04921147550953714,-0.0523369848069232,-0.05255835335221886,-0.052253183370435115,-0.0520822380430884,-0.05122340088038298,-0.04878186126100622,-0.04450703490482119,-0.03839328111312526,-0.030496835698841,-0.02111694016476068,-0.010444690626418843,0.0014559856703977789,0.013670775014717751,0.024289888624150713,0.031848697531316875,0.03636886379418901,0.03927791681403106,0.042853826814612174,0.049040946687396225,0.058321567485717526,0.06982628850885102,0.08231680619778246,0.09487923010307527,0.10712074482042362,0.11919764113396468,0.13130545316217257,0.14298212111903405,0.15323658102834736,0.1611137928781171,0.16617518370428483,0.16892254451243585,0.17037588958376962,0.17094841889656712,0.17024509875378188,0.16780971230092995,0.16355645546886036,0.15760308364383907,0.1497989865697195,0.1392435976698675,0.12455272094815409,0.10499701563179997,0.08089083070793981,0.05292179019992688,0.022160020382656985,-0.00945223331680288,-0.03953460161354385,-0.06636606717902313,-0.08932389116347707,-0.1080241262282379,-0.12175872016923299,-0.13059679579710595,-0.13606928334027957,-0.14007703711088504,-0.14386892788639422,-0.1477081016405194,-0.15059658297189718,-0.15051307038653453,-0.14560703231148858,-0.13586248901088505,-0.12338822220160432,-0.11055624701834076,-0.09823982891596533,-0.08583678400826023,-0.07264405567033658,-0.05952870255226684,-0.0491432660669768,-0.04401947440298968,-0.04440195716819524,-0.0476622284185583,-0.049548259109322666,-0.04612321167152341,-0.035128680852026334,-0.017194149664275106,0.003283135020859451,0.019692411512331833,0.027176475069983663,0.025806162930298488,0.020291795231317793,0.01646742543153178,0.01738883604749702,0
-0.012432639541405305,-0.006881204565241147,-0.0023992498386400485,-0.0014738204866570504,-0.005227187359379536,-0.013721260338775349,-0.024664434256465022,-0.03240813802812519,-0.030189984485752535,-0.014301626472739203,0.013027891058871128,0.04374704185508974,0.06763180021175126,0.07749801789748939,0.07225212530529719,0.05658632931602908,0.038489876502822505,0.025719027414699624,0.022647878404921006,0.02887917631567107,0.040030903214448646,0.049951209912035124,0.05301744832482898,0.04600510533765022,0.029129895883959075,0.005865665458448931,-0.018092906205993766,-0.03674203273858028,-0.046217355458208,-0.046306712860649024,-0.040119059723332046,-0.03212615981900395,-0.02571265941773527,-0.022224076063491725,-0.021543235772331092,-0.022290598544548977,-0.02214521506023821,-0.019230437630617988,-0.01379708400401777,-0.009887812106811845,-0.015659037197314606,-0.040286577623316784,-0.0870017883897897,-0.14350634773806714,-0.1742986086631386,-0.12445453192194578,0.05634708200063232,0.3754980390279815,0.7683028707935942,1.103499244146072,1.2331728091289076,1.0671773939277767,0.6272946924261257,0.043848458125813825,-0.5054896255342458,-0.878133782085152,-1.0214435087823421,-0.9722710206983761,-0.8129368967068445,-0.6205384727288719,-0.4404450959895905,-0.28859935410551607,-0.166922467172786,-0.0757247012070403,-0.016161081965841102,0.01414988348312194,0.02384685860345309,0.025193702751863528,0.02841151065319565,0.03684889752544264,0.04680388944582946,0.05226325544698405,0.050226374021374885,0.042424965208602894,0.0329803443651737,0.024952931331369062,0.0190763141909668,0.01464730033949552,0.010368649799845383,0.00491811138559867,-0.0021754084852548504,-0.010119191604820589,-0.017033186368848464,-0.020751241005813575,-0.020887763079591677,-0.020274889133245586,-0.02313565434010746,-0.03137819228722695,-0.04228418668731249,-0.04955087704299817,-0.04791362367045879,-0.03781198311061462,-0.025268614137402834,-0.01734359162280706,-0.01746791749505431,-0.023855566074059018,-0.03160181843402763,-0.035884248071303665,-0.03355170103889258,-0.02366934523670256,-0.0075164370549343825,0.012517730810277728,0.03402293526637169,0.05486404833503159,0.07337104975761699,0.08875965365808108,0.10157580547442978,0.11345906595413648,0.12612104705119603,0.14055744291708397,0.15659580041254892,0.17266474313497213,0.18687112507975995,0.19873028395210257,0.2091190497708647,0.21827154327697665,0.22417806817637057,0.2238462838589045,0.21674161131884004,0.20626849854543275,0.19687334718659133,0.18946800740067957,0.18011744845144448,0.16292930929751578,0.13366666127518584,0.09205554762210173,0.042574008888912176,-0.007309348448152224,-0.05085021826315255,-0.08472819650190676,-0.1092645369405686,-0.12694112615892242,-0.1404604398585848,-0.15156715402314214,-0.1611203734293799,-0.1695324721759434,-0.17673469595653632,-0.18213546454385696,-0.1848224206656838,-0.1838229363952568,-0.17870937789785227,-0.17001479704216754,-0.15873268746153446,-0.14567367584384688,-0.13135001766918813,-0.11623445612422814,-0.10130702207531064,-0.08801171794079625,-0.07707845036821569,-0.06773992840945738,-0.058583129619270466,-0.04880471848250349,-0.03822454375840397,-0.026883147928512003,-0.015504742306019986,-0.005687886528751716,0.0011267878817314593,0.004860134131728231,0.007172616292599795,0.010741197267410608,0.017556628088628186,0.02732773649267943,0
-0.0172930854825391,-0.0185434981447809,-0.01997262046083881,-0.0229867845409662,-0.027854236129164378,-0.03279146645805494,-0.03481356271483661,-0.03126535787668204,-0.020649564113686507,-0.0031835580722950354,0.018573349685684856,0.039594094319684685,0.053612893700498016,0.05607170191495446,0.047188831272201345,0.032591632152597125,0.020412520226135746,0.01644246190639168,0.021083544496750768,0.030104778162212336,0.037652244631086,0.039513647689686536,0.035021093435279475,0.026319093614650846,0.01594309756295581,0.00498577306978454,-0.0066939773370282936,-0.01875076447370361,-0.029379344469566873,-0.03626889752554436,-0.03831991359110832,-0.03641783157042396,-0.03267114054537552,-0.02904451428643257,-0.026499889359911554,-0.024380008259643357,-0.020157104228806764,-0.01148001326555365,-0.00037382794368231564,0.004389956774742881,-0.010162328090641704,-0.05421257020575548,-0.12527812177576705,-0.1978331745935202,-0.21979024004305991,-0.12696147135066957,0.12219513556323602,0.5071057028732909,0.9270702068167224,1.2263970326341642,1.2620672302329383,0.9797223457501019,0.44935202428861937,-0.1640548480270789,-0.6784231789840749,-0.9751912190203822,-1.0366044523102111,-0.9257362060881558,-0.7336435534076167,-0.5320862995438185,-0.3563866871363937,-0.21562072591900316,-0.10943851061430207,-0.03663708939236493,0.005252516655063502,0.022969059362279838,0.026831186390427447,0.026504376606726762,0.027681631457015597,0.031635184254220274,0.036821770734990815,0.04116504516913044,0.04349582920291554,0.04347779277127187,0.04111593577722339,0.03653264098655382,0.029807199010684644,0.021440068965372722,0.012835702728809571,0.005462485928621131,-6.140095915629223e-05,-0.003730887806545633,-0.006024249187907397,-0.007975725468458244,-0.010492170403060762,-0.01396222553893792,-0.01856610824755464,-0.024206556506557505,-0.030291440004190758,-0.035721895971761036,-0.03900411985936128,-0.039119311926734936,-0.0365414829295281,-0.03281547299418741,-0.029352251716297423,-0.02674328184103706,-0.024485410741115994,-0.021405447202934726,-0.01656669543170931,-0.009464560820731558,0.00022132586367337248,0.012749762415315767,0.028200726753758454,0.045862997040675674,0.06426141791836293,0.08199977405803473,0.09786861822983509,0.11093579431432564,0.12155454699174591,0.1316486937233784,0.14335790737488888,0.15746419355684715,0.17290073479707838,0.18709570903979716,0.19699419272409227,0.2008084206367301,0.19896103443555074,0.19301904850366622,0.1841341949359368,0.17268599341626012,0.1585773613416593,0.1416665389015128,0.12246727600166334,0.10197388832532343,0.08040200911214611,0.056628768308191586,0.02907127696004956,-0.0027254877926780677,-0.0370787722429972,-0.07071215793266847,-0.10002933515255459,-0.12208072748239462,-0.13560567100515036,-0.14186869353740894,-0.14393834943633138,-0.14472533713346714,-0.1455849522770012,-0.14638614476153392,-0.1462983048585597,-0.14416307224798686,-0.13898317803641558,-0.13095740881842802,-0.12154163323795222,-0.11218118665857059,-0.10335142803312845,-0.09468011943828405,-0.08575747086121961,-0.07683891504111419,-0.06830926955696204,-0.05963207893623559,-0.049915924229806605,-0.03932286343658184,-0.02912946765511654,-0.020611244771689585,-0.013943783879115306,-0.008292443279426132,-0.0031933629985402,0.0010480419206746125,0.004672036353139876,0.008954683087843529,0.01492065913669299,0.022219724130013822,0
-0.007772082960487685,-0.004790917883806151,-0.004696365140877685,-0.008689276766781835,-0.016652130842206982,-0.027035972797474554,-0.03677403284375105,-0.04134141019751927,-0.03645230904108173,-0.020876709667235906,0.002356446436042136,0.02671165862715946,0.044453753908944973,0.05062832006333365,0.04582185332507181,0.03513169623900122,0.02509542550842723,0.020742220416561163,0.023382795803841925,0.03042506245211762,0.037802871179707674,0.0424618971560628,0.04270619766416838,0.037559651877470665,0.026687027772563876,0.011069752091350167,-0.006290239125231331,-0.02107363022509788,-0.029875809041442332,-0.03196247417769006,-0.029099595742922882,-0.024375137074771985,-0.02096738110113907,-0.020672445050215597,-0.023168645252635175,-0.02641642654789673,-0.02724489375483572,-0.022840344222476876,-0.013173199699353955,-0.0027046959441425797,-0.0004822522189991815,-0.017665158134794506,-0.061359852231202265,-0.12483370519287651,-0.17747233707810514,-0.16455738881313886,-0.02818259115456613,0.2539435891150286,0.6338848705404475,0.9903622668188193,1.171757413653246,1.0704057078537597,0.6846527297275606,0.12655549511613182,-0.4312974206973338,-0.835941540257683,-1.0141560351755579,-0.9838982001305152,-0.8204032938494661,-0.6067096019090596,-0.4012473167582503,-0.23265933392247776,-0.10973597373841092,-0.031201673806742877,0.01038233276970689,0.026985871670601368,0.03155505052822688,0.03384107397795569,0.038633730427752803,0.04640456568919345,0.05477025509375364,0.060402324886994305,0.061200742554025744,0.05725879102618089,0.050017572801554624,0.04101215167860743,0.03135312247203558,0.02207739670981094,0.014697814646761731,0.010656836988802956,0.00988597585715771,0.010343579252162423,0.009240114439156058,0.004941729360182067,-0.0020118839766138617,-0.009720655745425355,-0.016453584035806705,-0.02170330785568004,-0.026354467313577806,-0.031021030655344707,-0.03447604277841083,-0.034968707371384807,-0.03233958354489025,-0.02829218880847214,-0.025243335763281367,-0.024732017448055088,-0.02618479519788597,-0.026876042629356653,-0.023532264066434588,-0.0146696921262381,-0.001799620344138445,0.01149722746112456,0.02209289007708376,0.029447525232446523,0.03556986612678064,0.043284717439696876,0.054549260920963766,0.0696322238435083,0.08688394932122867,0.10344783017137175,0.11735069930172572,0.12874435787843444,0.13858451758175486,0.14705470796910083,0.1534869493537092,0.1570300304642,0.15737377928944354,0.15508059397284188,0.15164404752262736,0.14925943099826183,0.149036975065819,0.14855075818647479,0.14274179837060316,0.12808665089970447,0.10492520827516359,0.07651400922484311,0.04682804470441729,0.018226121593941096,-0.008891506433080967,-0.033941519193840385,-0.055259184840547114,-0.07148849843704204,-0.08238507293502123,-0.08891023928148471,-0.09350758431637701,-0.09919770253736139,-0.10757235780122189,-0.11761937649401011,-0.12617918371086356,-0.129733034982998,-0.12673110884795763,-0.11861333913189727,-0.10843710976094637,-0.09890416253213148,-0.0915996826939176,-0.08689693937034809,-0.08406389991007883,-0.08188911687116308,-0.07933838987861296,-0.07548785232703581,-0.06902904468339886,-0.058982361456113866,-0.04646752275968708,-0.03455684129837257,-0.026038529268975704,-0.021649490543564923,-0.01971686633481439,-0.017402325405200328,-0.012863501300133385,-0.006485964780081338,-0.00027666140099592493,0.004035144953146892,0
-0.0017186072100749891,-0.007733027201994563,-0.012517710970636652,-0.018227434753907878,-0.02548659456662302,-0.032754942082285125,-0.03703991365930777,-0.03617037863264321,-0.029878610959400254,-0.019001721944966393,-0.005213136420316569,0.008790675139792878,0.020148305932158873,0.027168059998189244,0.030297061537724025,0.0318755627641747,0.034196743921005926,0.03777202852318622,0.04102782906357351,0.04091911115530855,0.03487125299618322,0.023350535268370578,0.010320241576220501,0.0007927562793722306,-0.002182439856715869,0.0011523570836714132,0.00813314334721936,0.015629947421767765,0.021195257251726524,0.023234479386948077,0.0210363217150259,0.014733276743041278,0.005400833790100693,-0.005048624119378441,-0.014325253942311739,-0.019658619246588422,-0.018028385211487523,-0.00805859281481853,0.00762936085049781,0.021537514200457075,0.02267812171410845,0.00046132961214351883,-0.04874757815957952,-0.1144277264739646,-0.16774429436814822,-0.1633893889612983,-0.05280390653384436,0.1875544971267521,0.5246662810804559,0.85889603638557,1.0535214971305635,0.9979590334144198,0.6704598523830937,0.15820797540312032,-0.38101221505301347,-0.7929694762280302,-0.9925380559623558,-0.9842545634352068,-0.8348173897563772,-0.6255527564586836,-0.4172768469800372,-0.2411764569824535,-0.10771430661012708,-0.01826778228047046,0.02967246938642311,0.043547905254117406,0.03684026175578002,0.025544686832655268,0.021899403656902093,0.03037251781769975,0.04744413229861299,0.0641299541783954,0.07125561605309905,0.06528935080804861,0.05014210384614952,0.03424763054962821,0.025434792666727334,0.026167436445862117,0.03232872272544143,0.036471831679642894,0.033125022654077976,0.022344812168145628,0.00845915055668739,-0.004058881056028115,-0.01335270555802297,-0.020207831654975132,-0.02580673962590596,-0.02945236260951265,-0.028901278036335132,-0.023009481314865837,-0.014270444194540433,-0.008640861233525862,-0.011681410604974296,-0.024128722281517672,-0.04082342272290059,-0.052923646835348025,-0.052279053123672654,-0.03644439323965007,-0.010382583506958306,0.016643443029745644,0.036083455748555995,0.04401564766529552,0.04257690850709642,0.038241806177719426,0.03794369455971008,0.04590674859398979,0.06245458603189706,0.08422077365925655,0.10603196023936855,0.12386943799147326,0.13649513825543114,0.1449797807371152,0.15122054249047628,0.156373353512569,0.1603721153827627,0.16266653638893083,0.1628963478511451,0.1611111686797341,0.15786188181508515,0.15393555530071634,0.14906153651523377,0.14022197021579197,0.12245322608529331,0.09317503008752025,0.05615439052499102,0.020698749693370228,-0.0037282277529250285,-0.013606028158105764,-0.014269712044404116,-0.01711570177475788,-0.032083914570857935,-0.060913526070384215,-0.09617269800091313,-0.12637179131770948,-0.14303007070777463,-0.14448827592414384,-0.13510474985853438,-0.12209013425762397,-0.11201409920176927,-0.10818570519331586,-0.1096681299862586,-0.11218313948569034,-0.11099228928131266,-0.10403450060378489,-0.09252184959120394,-0.07925394985874826,-0.06717574062144242,-0.05875745173799559,-0.05505249801763274,-0.054981172251988314,-0.055970543412633716,-0.05497774482772494,-0.04945408131060744,-0.03866989116924375,-0.024042874767715217,-0.008288767879919522,0.004921357067092614,0.011904914505065426,0.011511540584945353,0.006361062674708345,0.001234774489459127,0.00020134795927382113,0
-0.013716323582802415,-0.013406126625931446,-0.013479280404904584,-0.015340911155681479,-0.020078645353284425,-0.027159330946993306,-0.03369094222436016,-0.035472318104820696,-0.029359755389043687,-0.015106553909998068,0.004274332624963251,0.023629128735643497,0.03793417043662976,0.044576061955136234,0.04426558775454004,0.040330401056991656,0.03703380634575734,0.03736550802462774,0.04133123107846798,0.046317303021867345,0.04910322044181075,0.047485499356905304,0.04095629025405728,0.0308037711291496,0.01934809688362131,0.008572338724753653,-0.00056778056400404,-0.007603062499456027,-0.01198284637171961,-0.013409630180275918,-0.012583121841674745,-0.011477814888369206,-0.012165330178962767,-0.014790646667767214,-0.017165598589070522,-0.01621375150185064,-0.009691105946873963,0.0022009872023150525,0.015943078740741346,0.024863113330000783,0.01989104203951827,-0.00797304101917872,-0.06180150951385851,-0.12925257771119741,-0.17415130797266357,-0.1406565145981401,0.02154496487094683,0.3188471401163355,0.6857213681188609,0.9919647670925681,1.093853054058895,0.9087128653726114,0.46763799484814794,-0.0925883127096514,-0.5965441954769515,-0.9129209261295903,-1.0031031283449054,-0.9141470958853353,-0.7319567635835229,-0.5315212448238524,-0.3536469897189035,-0.2105827129885058,-0.10251579308293304,-0.02813261771451716,0.014731888588705465,0.03250007750940434,0.03605285135122848,0.036354765234694865,0.03969794516155128,0.04658263290114246,0.054222692998168946,0.059501733955620965,0.06064288159648588,0.057909119101027626,0.05301807516339065,0.04757231677880622,0.042069138448095025,0.03606030068019868,0.029022054209698854,0.021241674758662007,0.01361711055663407,0.006702871015428522,0.0007251441508074677,-0.0038083865220042666,-0.006449511696829889,-0.007470277899127201,-0.007743467356064154,-0.008499473033194501,-0.011258691388946111,-0.016909192199209583,-0.024433237673325184,-0.03126549641637928,-0.03498104890209218,-0.03450547258803753,-0.03039181415902395,-0.024054330379419057,-0.01637079829398576,-0.007411692031201174,0.0023735778379912796,0.011571538271951298,0.018787017146515664,0.023905340773726892,0.02850914079773642,0.03520245911848335,0.046050325714347834,0.06118399570681764,0.0788217586431658,0.0964818866317297,0.11191433571990145,0.12326834319661141,0.12953726397414542,0.13131916568769958,0.1306482994098949,0.1301123330691745,0.1319295996459642,0.13676259295130636,0.14297063214979266,0.1475752340069125,0.14850099455942112,0.14584800471270615,0.14108810795466412,0.13541121848398202,0.1281356886947466,0.1159809933349232,0.09514357478748704,0.06513655808250886,0.03012767026939039,-0.0035177423399540414,-0.031027924126054762,-0.05148225980425151,-0.06733134683208486,-0.08231235532867662,-0.09917645864268396,-0.117717382693168,-0.13439967777996975,-0.1449449425085723,-0.14775799605115147,-0.14429011434794053,-0.13661462962624082,-0.12625088771357548,-0.11525104742074754,-0.10628927791153707,-0.10081509189581059,-0.0981068157266663,-0.09598032366720743,-0.09152215696647407,-0.08214637478553112,-0.0676141477009386,-0.050941984796443594,-0.03653332249293904,-0.02725702810194612,-0.023131264076092808,-0.021901415173480036,-0.02029443003143853,-0.01572900235021113,-0.007902523186763707,0.0013596530106904543,0.00983618896529923,0.016219704387048797,0.02016332428806716,0.022208340258527942,0.023762718941871024,0
-0.017208630290111045,-0.016224959588260188,-0.014201167001654101,-0.013798744791615693,-0.01713461985744712,-0.02412591396054216,-0.032155438784088934,-0.037048616954655875,-0.03450841070246605,-0.022234937653862853,-0.0018577609380647866,0.021285497768151942,0.04044058460779622,0.05042385701787232,0.04997382027563892,0.042280387006553594,0.0331447832038189,0.02763576866422932,0.02756803521237892,0.03138581078466582,0.03610774522642714,0.03965570165960108,0.041270351736279756,0.03995204196425778,0.03402329558408544,0.02298131982199866,0.00871663160195051,-0.005490615178367366,-0.01660484369283232,-0.023098464831602477,-0.02537635366770815,-0.02486217031105304,-0.02263062245592623,-0.01882629471367129,-0.013277717717900862,-0.0063595114563249604,0.001109392986343164,0.008395407478806979,0.014492414119146459,0.016447064890357348,0.007934824811325092,-0.018870362470339783,-0.06679171002309525,-0.12449231136913207,-0.15940273282397543,-0.12046865995717507,0.04064765475123183,0.33242624991825065,0.6933028227753163,0.9969512600763675,1.10189747412786,0.9238069016229158,0.48762551856767394,-0.07690993493198825,-0.596578448427031,-0.9345759087601754,-1.0423212248166798,-0.9590219129992539,-0.7690409913493075,-0.5515049817107283,-0.35389276987239676,-0.1948454051099214,-0.07841258750180663,-0.002991230087192251,0.03694072241292772,0.050670825374381945,0.04953602551571708,0.04377350098336418,0.03994210422218462,0.040614766929726896,0.045464337218028165,0.052331248159852836,0.058183361838023376,0.06052203814653177,0.05867609701206574,0.05364636769785426,0.046849065538022615,0.039135570063378325,0.0309599301054075,0.023158421369388244,0.01673438137192696,0.012099411978748963,0.009084406105630912,0.007069965550503741,0.004912055469685787,0.0013384718566796325,-0.004201234557372284,-0.011076714078494785,-0.017988590038885935,-0.0238366448845222,-0.028015509305556845,-0.030052569967515104,-0.029462360929272412,-0.026216932285909822,-0.021023596469723054,-0.015087128945074166,-0.009939534031885876,-0.006998368591855848,-0.006273756404912652,-0.005861640508027472,-0.0032658328796742117,0.003423769228060331,0.015294740111986671,0.031941438633584805,0.05087869706569473,0.06895328762437113,0.08472835763164968,0.0987425091395358,0.11171682354554266,0.12343110618092275,0.1328651953587419,0.13877604854518708,0.1407330457275784,0.13996106041696849,0.13869943524382938,0.1382819683522664,0.13745430485672866,0.1326680392073597,0.12108192053965386,0.10360923602954028,0.08461192061469461,0.06908795758984632,0.05990828190091659,0.05651567414804942,0.05581626713002359,0.0540831735407897,0.04819068459816221,0.03634295565654099,0.018542023127365675,-0.0038783353412396686,-0.029182122208565347,-0.055279518829479714,-0.07924776807142635,-0.09788593391798311,-0.10952363318768296,-0.11528584932316477,-0.11812229380662197,-0.12042152007857804,-0.12268384931416026,-0.1238988876650412,-0.12239427794955966,-0.11690408124737338,-0.10743666062871035,-0.09506238059369584,-0.08141901169100155,-0.068808660279466,-0.06010638312528618,-0.05730292030545278,-0.059661523757178286,-0.06389047044740027,-0.06583594704622049,-0.06162316163110138,-0.04879216232001484,-0.028025650809052553,-0.004015950100307671,0.015653733669343403,0.024062174007575703,0.019329209240696137,0.006137146530181544,-0.006755229339483481,-0.01131766721792805,-0.004730179000200386,0
-0.013718455987160873,-0.0016304617968438627,0.004519748023616514,0.001360164314267295,-0.009399879057366542,-0.022494848173783583,-0.03210749107795961,-0.03401431716644962,-0.026465555116751284,-0.010747469315673159,0.008860836631564303,0.02632477912776217,0.03642000468568611,0.037606620130854265,0.03297625074179639,0.028198353091854464,0.027746909544189513,0.032453772016718695,0.039855406836251266,0.04604522704086977,0.04796502053038731,0.044935607122190614,0.03818530731845294,0.029044620042729674,0.01789508604016243,0.005434209969227282,-0.005326121761019363,-0.00981571181399106,-0.005498433931964678,0.0053633094623203315,0.016296471950740524,0.020601189173176077,0.016282766788378065,0.0072137201281176205,-0.0005556854728378984,-0.0029107265568657508,0.0010850833974625834,0.009924035642568284,0.020428259850795653,0.027619845770976644,0.024037482732569254,0.001001884087293587,-0.04524938733138533,-0.10319826089190823,-0.13757034807486132,-0.09347642974075442,0.07778382133548892,0.378269128116301,0.735427703337728,1.0141188642193852,1.0738222887321074,0.8441534928766101,0.3710481955764558,-0.1999273175368461,-0.6947388130480454,-0.9919671830010801,-1.065056184351365,-0.9672760527040754,-0.7816447111636252,-0.5757554520851771,-0.3858805099856597,-0.22590021362057117,-0.10122445703811986,-0.014240240905384883,0.037323737188701626,0.061182143910785344,0.06757167696996277,0.06578239125403965,0.062308223832992185,0.06048832012813319,0.06145280853000298,0.06486705668745904,0.06885096468646715,0.07085731626125316,0.0691751132974347,0.06357401563014141,0.055252516421381154,0.04609921474980141,0.037719099529430096,0.030813493164475254,0.02453730546475563,0.016499959046051407,0.0044018709433326034,-0.011564092279091904,-0.02745836068291831,-0.03667656152715993,-0.0335509784000482,-0.018156410985133268,0.0019739585933825935,0.016423412008766444,0.01888671777331908,0.010139494631879822,-0.00400266341837296,-0.01656558966766836,-0.022687136740908064,-0.020941875028644155,-0.012643690007491035,-0.000742616839045992,0.011134648003101738,0.020334739519016688,0.026621302378727875,0.031615299210104406,0.03679675232823565,0.04225562164898285,0.04723229522174061,0.05170057142582608,0.05744165741520172,0.06743437423619747,0.08333582932648789,0.10307178593761541,0.12162815339391145,0.1345330695254882,0.14072073369390237,0.14281314001737294,0.14472504478571757,0.14851678704211138,0.15316545530019204,0.15573670662369302,0.15374202120046254,0.14674208045326056,0.1358878954341745,0.12262621978902963,0.1076161242289279,0.09015536896897983,0.06916159461427247,0.04467176269797283,0.01783233380656061,-0.010205619735180763,-0.03912960954823184,-0.06899899240279589,-0.09854867631385307,-0.1241728242750213,-0.14088706821366315,-0.14514347258100813,-0.13801689632046926,-0.12545522958129568,-0.11458360153296744,-0.10964853137572837,-0.1106432844798342,-0.11424973629773161,-0.11608039571893454,-0.11316632992047021,-0.10508646149196507,-0.09336596194263906,-0.0800746381286423,-0.06676723511940719,-0.05462072834820403,-0.045071271999818835,-0.039274908261962276,-0.036670523830380906,-0.034951547718322463,-0.0319189799672466,-0.026837179715199496,-0.020339321401920716,-0.014231425256700266,-0.010851591838536115,-0.011198277130859692,-0.013635336325283604,-0.01451299975223548,-0.010149900838674364,0.0006096336556619501,0.015178332477128785,0
-0.024238797904807936,-0.02563650775982148,-0.021085089754139336,-0.01373317289373217,-0.009121759996077082,-0.011725313930746946,-0.021631046553822586,-0.03328973314896962,-0.038136508439615656,-0.029674365990243645,-0.007219356366196375,0.023300111972964666,0.051771244505560206,0.06902123930798797,0.0713454048362524,0.06179618675993561,0.0478381872815452,0.03653079906943964,0.031037633307025483,0.030899477366769075,0.034024557134795935,0.037844840265661185,0.03978537692451329,0.037757303392262756,0.030329733753853706,0.017337189010070763,0.0010957919434260396,-0.013931570729100874,-0.023448245556286117,-0.02576560193914415,-0.022612493992823245,-0.017646503270769387,-0.014049400706341473,-0.012971729088207273,-0.013382450629559,-0.013111503384288074,-0.010087213669073027,-0.0029259209412031643,0.008346350195612126,0.020425896813763618,0.025391174695698696,0.012898593235980381,-0.024057654507297438,-0.0813480558736135,-0.135123941410949,-0.13901764249616336,-0.03823847330155965,0.19705194591762434,0.5350009232131525,0.8703535877306405,1.058397792672846,0.9853384671536181,0.6342510032973595,0.102094608090416,-0.44538662212641006,-0.8530075074734069,-1.0413880735017893,-1.02263186782859,-0.8675556501476368,-0.6561152188524176,-0.444530253176663,-0.2608837287359709,-0.11680424630978864,-0.016812906520902268,0.04056638541247881,0.064112409277192,0.06785847661695338,0.06548565205865967,0.06503823359870768,0.06812111746166101,0.07282175314244653,0.07638981718458622,0.07686088126011892,0.07390383535792591,0.06821694042734475,0.06081345715748879,0.052952830609642274,0.04567099121474648,0.03946368118895689,0.034358950673186325,0.029524110070231945,0.023402162073591623,0.015181707498817486,0.006012921742213708,-0.0015554272747097097,-0.005604193174303776,-0.006628905856606426,-0.007106395146580758,-0.008969259599121177,-0.011805596608354417,-0.013650504727175149,-0.01306840939908227,-0.010294826575497963,-0.006953869610247255,-0.0052726798720612025,-0.006974667319852565,-0.011898513012205127,-0.017561722369794808,-0.02040062190452346,-0.017788772538896325,-0.00931592534695547,0.0033665371166800204,0.01781460741312339,0.032467131702536324,0.04733243852785412,0.06244965950170846,0.07590793093975548,0.08470104301242487,0.08757265426186019,0.08648703499133985,0.0861282723552359,0.09179124161569058,0.10585952143306264,0.12573159879260432,0.14516623789071917,0.1572184173184559,0.157639010414429,0.1477457159029039,0.13387781616720923,0.12334475161024747,0.12008791682015964,0.12247528156996379,0.12422652073233997,0.11804136772092833,0.10004044378964894,0.07236047714876825,0.041204067975158784,0.011511038688223448,-0.016308356036554873,-0.044451326883930914,-0.07305999315686006,-0.0981610440242359,-0.11439779590885812,-0.11944555537490398,-0.11636916900414893,-0.11208905497526883,-0.11274085664440675,-0.11947000321750488,-0.12799355703785434,-0.13211000683005483,-0.1282010848961039,-0.1172820392865339,-0.10323636006930954,-0.08967879204489972,-0.07927103220500242,-0.07484911537112637,-0.0786403325984928,-0.08879332591846513,-0.09710283436391576,-0.09268047838438992,-0.06985148675944573,-0.03303382489078483,0.005183472079413389,0.03128427242704146,0.03873306633695669,0.030622471051725407,0.01575359518990279,0.00262853709496339,-0.00417078775674486,-0.004028060458917933,0.0017620790711169489,0.011272087701146585,0
-0.018737058743656866,-0.025880935864121022,-0.03051612649830668,-0.0364983101128468,-0.04620841364478044,-0.057993527210178836,-0.0665254251881513,-0.06533224938727743,-0.050858469845572865,-0.025513202302544377,0.0034940743325197294,0.028638547599735227,0.04551454152718862,0.053116291560297985,0.05292304405463399,0.04850942435415827,0.044652321735323505,0.04504697719068245,0.049912106599848086,0.05569533006385648,0.05789431443417736,0.05457992419740122,0.04693242133858369,0.03685921878500792,0.025050189346138667,0.011605341755020225,-0.002133594992683745,-0.013344813795369517,-0.019548634410471437,-0.020493100967535018,-0.018491782703368223,-0.016728217889212263,-0.016674549589754832,-0.017398383237941642,-0.01714241825586032,-0.014865768980434683,-0.010364613185652294,-0.0035770001319635246,0.005242347113142056,0.014039833649177094,0.017272999943987465,0.005824535507593227,-0.028697133686135388,-0.0840751772149751,-0.13644285598488123,-0.13840005572425063,-0.03584885894649596,0.198602413718893,0.5333117122700355,0.8696359506446067,1.0721727197194648,1.0298428819136665,0.7164104115387169,0.21171806423998105,-0.33264818963564646,-0.7637221609837164,-0.9918114515766303,-1.0134921438561895,-0.8880587734181108,-0.6929672045945925,-0.48891154144933247,-0.3087555377469511,-0.16477467635346343,-0.060065433953337015,0.005784297726656819,0.037424354943497405,0.044964622635920576,0.04142701245071432,0.03770209914324022,0.03843744695114777,0.04175485036755141,0.04307132851059484,0.03978956766123413,0.033068079715339496,0.026005476689396567,0.021052136346757355,0.019134484296727275,0.02001686847449572,0.022503523201810545,0.024720772348541926,0.02521699298781608,0.0237445435899922,0.02075583278069086,0.01668243342462274,0.011647742205424801,0.005797554666315258,0.00024069439261708257,-0.003189741632778841,-0.003857699313792406,-0.0031203569378181273,-0.0030559303189694915,-0.00534003116941722,-0.010572612634954431,-0.017481625609823335,-0.023398227566971505,-0.0259929638115226,-0.024580732404556993,-0.020262928251017415,-0.014805711189996653,-0.009178804555658187,-0.0029839140861438957,0.0052274968844577205,0.017005178895677934,0.03265757625055977,0.05055093263297897,0.06840703642187017,0.085821279820263,0.10482128441596894,0.1269594009459739,0.14997744033819024,0.16837879695979963,0.1774422349668642,0.1765360319213336,0.16967586044777744,0.16322025425050038,0.16172237376617704,0.16525744760850208,0.17030267695157597,0.17246838051375277,0.1686697519093658,0.15792278626903233,0.14087561331235807,0.11867305917042871,0.09234477227466475,0.06297724431804835,0.03170199642799436,-0.0003114899808680932,-0.03123152313030357,-0.05851528277897835,-0.08006526002978057,-0.0954802702788473,-0.10646543915593151,-0.1156378270134847,-0.12436136097857722,-0.13189771403823472,-0.13669077373587912,-0.13807090821220255,-0.13652954903475525,-0.13293754886404255,-0.12788543003501995,-0.12153458344750523,-0.11424816548469191,-0.10705414691747826,-0.10083960316259297,-0.0955840484592133,-0.0906084589700633,-0.08510008986707614,-0.07844674125922949,-0.0703562587716997,-0.06115830874726318,-0.0519257204919176,-0.04371984553186376,-0.037086638462787896,-0.032136264506048146,-0.02817856747669687,-0.023655892291286718,-0.017089350788197597,-0.007977542726602786,0.0029747482815579845,0.014248609976845399,0.02424777009119487,0.031532037638750066,0
0.014785081762742095,0.016034354408256207,0.01549388051262997,0.010795762063082642,0.0008504732688784863,-0.012692388917866539,-0.02548482564596676,-0.03214766592558336,-0.02824191453412257,-0.012108247877673239,0.013222682522457245,0.040046994948409395,0.05943072991432517,0.06576206102505273,0.05934200248860247,0.045761603052286895,0.03279666544127289,0.026707836086531034,0.0294092224230123,0.0379813154604646,0.046964120239416415,0.05159094731778448,0.04971378846922977,0.04154401840598064,0.028563897822914568,0.013031363636983522,-0.0023043184869620858,-0.014660978721815546,-0.021834602418064085,-0.02282150907846031,-0.018356179609485372,-0.011407414819855542,-0.006850272808727302,-0.00928674161658912,-0.019489054560228147,-0.03251716351900881,-0.03994048717619274,-0.034726077672923225,-0.01604820740131204,0.008412625442879174,0.024449454225167134,0.01744208656971228,-0.019531264673494957,-0.07828091268651272,-0.13026487650044244,-0.12741632552005272,-0.017185420131737565,0.22661632569041887,0.5713555496435062,0.9154146652569317,1.11839213384686,1.0657580604197956,0.7326110622411615,0.20474196300388126,-0.35874820487874426,-0.7994750901950262,-1.026320701481041,-1.0388077325334693,-0.9028303994230559,-0.7026977807381489,-0.5016775828351855,-0.3297674657567992,-0.1937582420741085,-0.09186354473622053,-0.021337416583658873,0.021244888663450825,0.04196847674104158,0.04919909011933125,0.05072905930241016,0.051533572240062074,0.05345469727466397,0.056041121187164374,0.05813922869035313,0.059233381708764236,0.05894524921951045,0.055707763207867404,0.04738996104475091,0.03381584556653064,0.017811281829909598,0.0034299353436219593,-0.006115884483367695,-0.009519345854340088,-0.007950745427770238,-0.004543646779180115,-0.0028868230649940554,-0.005545477168794574,-0.012830552215801485,-0.02244919248463166,-0.030883205194903857,-0.03561224792793159,-0.03632465894533531,-0.034291790733212035,-0.031088307575373997,-0.02798516166890243,-0.025530515880538732,-0.02365129045888503,-0.022713442884318244,-0.023329829876402162,-0.024445675377624407,-0.022363672523237368,-0.012523920030887809,0.0069941205726940315,0.03387752819968436,0.06311984455990743,0.08921178645082145,0.10823805801824787,0.1200921429883206,0.12869091025206902,0.13910096601494476,0.15397113420159722,0.17206846655220231,0.18974869979193876,0.2036736338617567,0.2121012072495264,0.21475573027582479,0.21280498068392467,0.2083683935935986,0.20314019700890096,0.19770698692898583,0.19149535047405541,0.18235637421524237,0.1671790993809954,0.1438121408497745,0.11209668310115894,0.0738067975549975,0.03228848150866665,-0.00878572746792134,-0.04666096353101331,-0.07937540469518264,-0.10552030355216654,-0.12496550165149944,-0.13906002713899435,-0.1493344626739559,-0.15659113141283282,-0.16151476030059958,-0.16482120516405296,-0.16621587570721824,-0.16431444696043151,-0.15820318154626375,-0.14867090311598494,-0.1377586211255329,-0.12743691178263244,-0.11865507533441293,-0.11116971630384907,-0.10434678341346691,-0.09794638193657175,-0.09153797598562113,-0.08417674033887271,-0.0754666899149056,-0.06580385139552086,-0.05567892942937526,-0.04573279545544272,-0.0366656153805665,-0.028529407220259387,-0.02109879088145582,-0.014788020082228313,-0.009861150354341756,-0.0051627550058771406,0.0010767727058019587,0.00943162542766018,0.018695893705312792,0.026771767065891103,0
