0.03083794819958664,0.03375631109832904,0.027423731785150632,0.012685835160183404,-0.004134210710495979,-0.015311150926591152,-0.016548443912730845,-0.009703553770527878,-0.0013133402158576118,0.0024610319784121215,0.00038598288651603397,-0.003420200588712009,-0.003145965032892732,0.003914448023566601,0.014882023963872672,0.02355059186863249,0.025498010750779246,0.020809668258924233,0.012541318699160387,0.003592255634692662,-0.004909335291289015,-0.01312614337095041,-0.021361389144330195,-0.029280691322278618,-0.035876495308219715,-0.040248971892667205,-0.042438228047167,-0.043301334171559014,-0.04349487282230865,-0.04282934709682488,-0.0406539840305261,-0.03661892896668571,-0.0315080347699163,-0.027759834695120757,-0.02876379418612842,-0.03669642528880489,-0.049769988986923884,-0.060947464526116255,-0.06002575341678384,-0.03926518405264429,-0.00038918077618138526,0.04239315977255696,0.06977471802025044,0.0736053140479075,0.06743857582189783,0.07896739141910557,0.13079193202200248,0.22566590645792323,0.34386927004251044,0.4499074946375187,0.5035286920898558,0.47214324694063325,0.34303851304392974,0.1329956276829608,-0.10975450143535237,-0.3180326391158374,-0.43304117963955985,-0.43284376979189104,-0.34262886401685794,-0.2183273207699838,-0.11400028614801287,-0.055714877899007136,-0.03826736152466931,-0.04124996702379278,-0.047060020016462166,-0.048331279523606094,-0.04594566207581731,-0.04368292444553509,-0.04371946699230756,-0.04541156987682891,-0.047151705182961696,-0.04868176135247924,-0.05131408299278343,-0.05623178836436193,-0.06318498592364247,-0.0706171575320394,-0.07643462200824018,-0.07906446108007485,-0.07850232740424931,-0.07617611209930397,-0.07374951006203621,-0.07237533252104907,-0.07246558774671642,-0.07327414970902887,-0.0730596964857689,-0.07033212366816476,-0.06504264719503798,-0.05873100341044254,-0.053474262993555455,-0.05024337080942035,-0.0480811328427415,-0.04488381902151611,-0.03887179833209091,-0.029426517674760337,-0.017191336420471628,-0.0037704774894788354,0.009279001587347837,0.021722451043807257,0.03483912437505042,0.05077679116633407,0.07178286716248251,0.09868617517117555,0.12973023970607153,0.16129528258247117,0.18957156120642127,0.2122244117457716,0.22889655270156486,0.23978482586367664,0.244545184569836,0.24349214837286245,0.23924137080780938,0.23582571234130043,0.23547632886250572,0.2361438101041869,0.23191781301024045,0.21618617695768672,0.18608618335720323,0.14493795070363996,0.09998730064208115,0.058090770890410155,0.022878506760635048,-0.006194998718577073,-0.0323244643456883,-0.058248857895198944,-0.08446719473335751,-0.10936928783179134,-0.13035579741259057,-0.14538841876193292,-0.1540407187938779,-0.1572670530209115,-0.1564494764609174,-0.15284979429637335,-0.14791692144665294,-0.14359282604192003,-0.1414406763236967,-0.14149565734069483,-0.1421773200405407,-0.14084803985775218,-0.13503351022779653,-0.12430496277511442,-0.11073553098464504,-0.09712700460199661,-0.08519941150189021,-0.07525531451540174,-0.06687956321430909,-0.05936293712151032,-0.05155269156590967,-0.042508659060754295,-0.03260178418376363,-0.023294217941527022,-0.015728973138429976,-0.009335940015771288,-0.0016640391529257753,0.009936352296827305,0.02569793131229615,0.04206712348437519,0.05331006647499398,0.05510416156125677,0.047419860745840384,0.03501947730420105,0.025077435294447302,0.022848517548400223,1
-0.009956018643800095,-0.030109000762567284,-0.04421251806986558,-0.05059692097745148,-0.05130249381646411,-0.048823182046952324,-0.04320292669366236,-0.03224853717546911,-0.014552728060875996,0.007537828272317168,0.02810142026829327,0.04108077911692001,0.0442046770814596,0.04028711938574679,0.034598118203122544,0.03018131241998006,0.025357577920627428,0.01579948500007912,-0.0009647821729699981,-0.022699198211943175,-0.04346174232251856,-0.05744872115844482,-0.062484718833145235,-0.06065694264097479,-0.056445540764135146,-0.054070031899412695,-0.05521177929216778,-0.0582817123158398,-0.0603308043072436,-0.06000659170703386,-0.05846093985699506,-0.05840081053804594,-0.06299468810162598,-0.07438330042544122,-0.09172676937284613,-0.11047517683212452,-0.12403809427771315,-0.1268407401576776,-0.11701841052532139,-0.09776976746530437,-0.07734707668421371,-0.0668621000084794,-0.07369756319608298,-0.09217628080513203,-0.09850758181816609,-0.0550931490300675,0.07616317041720848,0.3133169863700946,0.6311565414269058,0.9499232237740847,1.1536807102213507,1.139140593960025,0.8722039386980366,0.41734455096501294,-0.08446161169280161,-0.480145040025101,-0.6730008909154638,-0.6571594605830756,-0.5035831349507892,-0.3116345217605835,-0.1587076847089035,-0.07657649821970848,-0.05847057566104202,-0.07956201460846471,-0.1136897820974483,-0.14131762898961267,-0.15193235208879757,-0.14388793579777193,-0.12266639805007906,-0.09824451197920657,-0.08103291879028279,-0.07661658477248563,-0.08277031732664716,-0.09155684203871976,-0.09527453379354317,-0.09195464511913586,-0.08621723210484278,-0.08522025346480648,-0.09273564353748129,-0.10534883992267277,-0.11443228340842633,-0.1132013198281587,-0.10230646567454374,-0.08857095956838781,-0.07923827483620315,-0.07710626625242215,-0.07914317582370967,-0.07950712361268295,-0.07438897283472141,-0.06356998581577745,-0.04860362549781823,-0.03156489310132925,-0.015160597772439131,-0.002012205903928539,0.007117320981429601,0.014493596896054731,0.02497090460890072,0.04328496527806523,0.07027752201501257,0.10172190171264008,0.1313069904608215,0.1548219168138408,0.17213141310099425,0.18666431487017945,0.20275604383312557,0.22176019746659964,0.24083438263355095,0.2561148658654383,0.2662488489724615,0.2725262201861982,0.27670292827334214,0.27941324319894584,0.2795468357147365,0.27367169172491834,0.256970131734928,0.22674981257479468,0.18533095440172048,0.13933517647321267,0.09635362313253845,0.060887679130636675,0.031686367073031296,0.003118555598443387,-0.029988358844062597,-0.06793533252241753,-0.10531084006128467,-0.13426892862710066,-0.15014820960742425,-0.15545062627381787,-0.15832338487939945,-0.16626251715082274,-0.18052032026404127,-0.19595039114463234,-0.20547238482071817,-0.20503369997004944,-0.1955751661860196,-0.18098104827799594,-0.16493955957164297,-0.14952952338630038,-0.1351231035810764,-0.1213613662435977,-0.10853470911541419,-0.09739077817305486,-0.08817544040287367,-0.08085005119871636,-0.07531380030026337,-0.07040870176370778,-0.06354845580030946,-0.052323687939053676,-0.03645675133499401,-0.01828971113236106,-0.0016963823414852183,0.00968616906650457,0.014271567263496356,0.013815752810326161,0.012818911005977159,0.01585349499357807,0.024527341892393726,0.036092991401665955,0.045212896583496295,0.04790810512240335,0.04443833894150103,0.038865667626306485,1
0.038324794551121706,0.03095513494451541,0.011577254196303352,-0.01423272352116763,-0.03732684140649748,-0.04875718943936438,-0.043876907310278726,-0.02528179729449465,-0.0018166674271522893,0.01649112105033874,0.024259942499521975,0.02307800342806898,0.01844745552426813,0.014759742191746524,0.013055408310131822,0.011876560035130726,0.009484814934804802,0.005789808241078327,0.0015925450809306384,-0.003826642563085249,-0.012746735496712718,-0.026435956061789192,-0.04321909582399794,-0.05932743909598049,-0.07177930828232403,-0.08010845471613258,-0.08530931598567618,-0.0879868484561248,-0.08769598171500309,-0.08370345841538772,-0.0765048093381951,-0.06852654624811036,-0.06337386539814431,-0.06449661212524041,-0.07332994379829239,-0.08731134687890744,-0.09965820490312888,-0.10183054390886127,-0.087954000090277,-0.05963679350264625,-0.02826172757746885,-0.010348003499119568,-0.01493233272014782,-0.030741966955101747,-0.024044065078878074,0.04882418339273283,0.21808321115984872,0.47560604283090707,0.762091919880297,0.9791500996934299,1.027677627278268,0.8559579945394779,0.4919969287260811,0.04046814060836888,-0.3591533423785286,-0.5944791408694031,-0.6283618961283438,-0.5063064484862043,-0.32193586316576905,-0.16433730043339043,-0.07897027323842891,-0.06177332881463915,-0.08113223892995898,-0.10524389340554305,-0.11714515770798319,-0.115273724965544,-0.10708023390108361,-0.1016540533795075,-0.10350455648472673,-0.11017312405518541,-0.11502167500073769,-0.1125268543978627,-0.10241561373983558,-0.08997778268005804,-0.08213858828928412,-0.0826281105372742,-0.08991990033577396,-0.0986358053495373,-0.10327603888165922,-0.10178733121132941,-0.09634962149278571,-0.09130857475411445,-0.08999587004486823,-0.09237684895790446,-0.09518671537971207,-0.09437951507031986,-0.08784985405921807,-0.0768754341762197,-0.06550342675449114,-0.057366862921043774,-0.05235550432402348,-0.0469539914196822,-0.03742637151410133,-0.022325324403087408,-0.0029987487655499245,0.017687419899817713,0.03775780680281021,0.05768570923763501,0.07910519141881792,0.10248114449134971,0.12684477887335593,0.15117632325885452,0.17546066253952916,0.20041675950058935,0.22627770466730276,0.2518774305972956,0.27472171275763196,0.29187232224426835,0.30122189696965673,0.302512014939992,0.2973635262215606,0.28817890303710936,0.27647869076428694,0.26211217034241685,0.2442236914565292,0.22254211260768553,0.1973392644477286,0.16798392383017358,0.13175666850926648,0.08582084676792984,0.03150504294896243,-0.024499297069088807,-0.07366111471666584,-0.1103139810640065,-0.13420536419576962,-0.14934199214455296,-0.16046574451773105,-0.17023742757497307,-0.17866394054519508,-0.18465248845616075,-0.18799098017957153,-0.18935289289810087,-0.18878867434052493,-0.18548383718139624,-0.17907373671272198,-0.17038928748023538,-0.16095171339948894,-0.15202030267453762,-0.14385333776565506,-0.1355134281625964,-0.12557244396852774,-0.11349576212943265,-0.09996882977054984,-0.08568594941848545,-0.07093557169883934,-0.05685337182534943,-0.045890038724376164,-0.04005959909380567,-0.038975429900174025,-0.039623666611719524,-0.03773234758183411,-0.03009090193396991,-0.016651309316346497,-0.0007282442288459694,0.012886902493013053,0.020710552626941447,0.02297345479741967,0.023626714352608897,0.027065478404005583,0.03439653043549383,0.042888732096459894,0.048957390896834416,1
-0.01755488194316893,-0.025433035805664014,-0.031132985199496623,-0.03364163246092698,-0.03227485190738742,-0.026972448146125413,-0.018352360467679185,-0.00757412704376723,0.003827027015574079,0.01381937684333005,0.020637217730272835,0.024378183101596243,0.026930942914546528,0.02961155673669226,0.03113289335629058,0.028603599173728463,0.020501633143175466,0.007898210774264006,-0.006973315228704909,-0.02236428998860896,-0.03711557223899112,-0.04997791705915201,-0.059847276555189545,-0.06666838946285729,-0.0712204722703899,-0.07410649540928829,-0.0758480601433317,-0.07745088879845882,-0.07987934348482457,-0.08339191178488722,-0.08739939057857904,-0.09054111831971917,-0.09185627242718053,-0.09240718706215183,-0.09498349928095638,-0.10140752651851265,-0.10939403244940092,-0.11203627583604404,-0.10173742437396713,-0.07688353675832182,-0.0459952346329469,-0.023596655265776666,-0.01790777397078923,-0.01908299755910252,0.00200559547028315,0.08238692409990817,0.2481549455060966,0.49416608299794507,0.7703005893460576,0.9872616272554513,1.04847060355885,0.896516529901473,0.5499259501497546,0.10633755691367117,-0.296469237281552,-0.5436508272096846,-0.5940319885148433,-0.4895578553326509,-0.32154885725585164,-0.17700046241686662,-0.09860822248387596,-0.08064322098574558,-0.09331115475621171,-0.10955989388020876,-0.11727459338298657,-0.11721123272707984,-0.11471542372447295,-0.11309059749716716,-0.11245105650861782,-0.1118856616606195,-0.11070462928260084,-0.10838019998386622,-0.10496193876185447,-0.1013603894980534,-0.09857592598276406,-0.09729425656949006,-0.09816610848425371,-0.10126631885699455,-0.10526605130885258,-0.10815367876529614,-0.10880998362438872,-0.10734992646676815,-0.10464241334895687,-0.1018255665379883,-0.09935465225436059,-0.09675420330366863,-0.09354762434459496,-0.08945682459861488,-0.08384453918066533,-0.07594543120171797,-0.06556940435801467,-0.053109983645769514,-0.039073163313425974,-0.02394322155978103,-0.00810231621682372,0.00850392238654376,0.02627491858525666,0.04554466080749745,0.06677604070335535,0.09065232394911343,0.11725196624386912,0.14572818758886597,0.17479244728448468,0.20285696297566608,0.22834476253156666,0.25046122911813595,0.2691213959844461,0.28392340294380297,0.2940242660416364,0.2992217551612448,0.30033422678038113,0.2982428425206881,0.2928431931270937,0.2831432391798858,0.26800785731173465,0.24624633539793628,0.21677521648659864,0.17959244594052265,0.13613787380609238,0.08856329902175544,0.03936136045143222,-0.008304018332620948,-0.05113470556420326,-0.08725454628656729,-0.11695102520683974,-0.14189599482874243,-0.16334500198298493,-0.18072834565328913,-0.19230629261953036,-0.19716312811736864,-0.19618023677847168,-0.1914878325413013,-0.18571613562786426,-0.180994037062358,-0.1776004169016372,-0.1739391149076246,-0.16799825473461458,-0.15879948818432787,-0.14705123185945043,-0.13441559429583824,-0.12212457162789822,-0.11088079308109053,-0.10113813870659913,-0.09227182261637994,-0.08240489292670362,-0.07016690500492881,-0.05643008468263518,-0.04374591521746411,-0.03420278582512277,-0.027989684462986043,-0.02335841218247615,-0.017684760810491813,-0.00926771184102046,0.0014202067041682136,0.012215574637068849,0.02071978617599435,0.025639492754593398,0.027457799975869817,0.02781929986246875,0.02859728592941139,0.03156297648479768,0.03745363844942684,1
-0.0009727509764236094,-0.011783021117383772,-0.024093247214646264,-0.03431141728680942,-0.03921983238956421,-0.03698690519236699,-0.027913848479725105,-0.01457371726320132,-0.0006805515615095272,0.010207464046672509,0.015751548532516556,0.016303908981460512,0.014885557072380528,0.014561000632469241,0.01629060673562167,0.019198574016886898,0.02130519411935894,0.01979980256171073,0.01234115108551402,-0.0009775111489437375,-0.017442918876051955,-0.033679432508829814,-0.047407857957215103,-0.05749620466728322,-0.06350042371227754,-0.06609031877969063,-0.06704378844852397,-0.0676583462660224,-0.06801193036554207,-0.06830015650224286,-0.06951160733907036,-0.07230391149411663,-0.07626972569350499,-0.08084917547360934,-0.08644616802639693,-0.09380257779812869,-0.10161543005582845,-0.10487756263159206,-0.09646453258834775,-0.0718392768294609,-0.03466100657912492,0.0012419471580749734,0.019483997007546577,0.016430180862500834,0.010989871554063887,0.039068338883669916,0.13600311445720462,0.31553380441889833,0.5530614808506742,0.7825266607765052,0.9152355839976214,0.8774397888478059,0.649138347509814,0.2821791009420738,-0.11572373704603951,-0.42573562547670807,-0.5692656021965096,-0.5399624961126201,-0.398940617166076,-0.23540248049172893,-0.11794565719415498,-0.06808712865785176,-0.06783876228812741,-0.08630444690623129,-0.10139247816162197,-0.1057647447792602,-0.10185089858446648,-0.09491491715641483,-0.08916565885480715,-0.0866559193379506,-0.0872692590628005,-0.08945576491529438,-0.09159794056272627,-0.09299334318855679,-0.09347340290514689,-0.0927704859257002,-0.0911599396172005,-0.09003252438293262,-0.09072337988645272,-0.09315430571788792,-0.09615043523062747,-0.0986344316112287,-0.1001842226879593,-0.10052429000147095,-0.09919296969974675,-0.09616975650462961,-0.09189046656181243,-0.0865897859343143,-0.08046708636925297,-0.0740002872814093,-0.06761714151948493,-0.06123823382040554,-0.05391855757012592,-0.04404083014606345,-0.030306334110440033,-0.012431976615706969,0.008699501234154878,0.031221843745200463,0.05365717541886023,0.07602891195107372,0.09890219115637953,0.12253153536519457,0.1472443869711048,0.17320307135601026,0.1998306677152604,0.22584701995784834,0.24932619018858782,0.2683458244466598,0.2821630868503768,0.2911897159880373,0.296010916390871,0.2969059515343599,0.2939261330209215,0.28693325244768547,0.27542706394129524,0.2585497261932667,0.2355399201989478,0.20595359187874746,0.16958989481566217,0.12689900258008346,0.07915899039143975,0.028427357659676154,-0.021797848991526605,-0.06693725951945365,-0.10363253214647457,-0.13139333428326885,-0.15175697759565482,-0.1663338050336458,-0.17607876938999953,-0.18207357047479228,-0.18591622983017048,-0.18857623463658674,-0.18954867965570946,-0.18782218937063813,-0.18294385954072215,-0.17520635855641986,-0.16560021935046768,-0.15517386014758774,-0.1444929645653411,-0.13418775000146077,-0.12505368792491864,-0.11708863085496109,-0.10934723126619691,-0.10081813198838738,-0.0908635478950158,-0.07940907571554455,-0.06723826897625314,-0.055662178511463226,-0.04565088367715629,-0.03727338608077294,-0.029990295548564118,-0.023325135109351466,-0.016992741751042224,-0.010599629562774611,-0.0037170893700433152,0.003641578659311341,0.011037147416740622,0.018154287152240774,0.024993671024855935,0.03153734279959591,0.03731059694885165,0.04141533684493948,1
-0.013962443059027123,-0.023625548879906685,-0.03334475414751666,-0.039969249590033444,-0.0400714189587867,-0.0323354883178678,-0.01938908223563798,-0.007128854781013802,-0.000986214442024914,-0.0017601850936014556,-0.004937289482803361,-0.004504518698814831,0.0022192323266459362,0.012916202569936681,0.022239804583428058,0.02543044946587581,0.02119528431752225,0.01184726811806103,0.000657552118175979,-0.010810826982443861,-0.022663991537004245,-0.03506585896378196,-0.04724317438631774,-0.05744294819923573,-0.06414581029697744,-0.06800943272343372,-0.07225367190749146,-0.080415794787837,-0.09324455454148439,-0.10747501436379445,-0.11763033041971294,-0.11959875704040217,-0.11383785482250533,-0.105723728673808,-0.10181122393816554,-0.10492915172767905,-0.11193414802539882,-0.1149693514839298,-0.10641269647958027,-0.08624100635688373,-0.06525865961388361,-0.05781508444000121,-0.06749446411766924,-0.07657200561722838,-0.04686069219263951,0.06642332668030058,0.2907710790814285,0.6104374415562436,0.9521383637208772,1.1989200397536512,1.2365411582164916,1.012599674734356,0.574058077104407,0.056107786383237615,-0.3774064744422491,-0.6104052776189615,-0.6233297064168154,-0.48705611244147845,-0.31088243931865644,-0.1808254315856721,-0.12555579768221656,-0.12434275005297492,-0.1403149497822491,-0.148482791423547,-0.14327286903583678,-0.13146416908733244,-0.1215624452545945,-0.11723915598110268,-0.1173883403640506,-0.11966349820167657,-0.12272696692807929,-0.12603441846276883,-0.12918280264394674,-0.1314784234413544,-0.13187591407368146,-0.13001190596975476,-0.12682327017515038,-0.12359323656554304,-0.1209864070846776,-0.11905155961746333,-0.1175374171063567,-0.11602351921225262,-0.11408434293473597,-0.11142729988742861,-0.10745856069343951,-0.10119852084744645,-0.09256934960066773,-0.08306341504810158,-0.07453786767675237,-0.0680096225027714,-0.06318170240179403,-0.05845078231145058,-0.05177782744365558,-0.041426973503717,-0.02595106818226154,-0.004716987843326317,0.021366421051060413,0.050347539930272245,0.07994839713831142,0.10796281332262483,0.1332347155459592,0.15627717547196346,0.17877401360671322,0.20276910776695772,0.22975024843469138,0.2593346205625055,0.28865714883381344,0.3138384683478501,0.3320359196482797,0.3420604972036645,0.3440257871559891,0.3388738000657262,0.32810102976659733,0.3133993640663988,0.29559592390935074,0.2737873093343861,0.2457643971137286,0.20966956294795636,0.1655394368225693,0.11492016914347203,0.059905993917847386,0.0036488390012818783,-0.04928611962084131,-0.09440864294463493,-0.12948185384530772,-0.15531662622960296,-0.17452248018290192,-0.18942316036292137,-0.20085944517581794,-0.20854737958505623,-0.2117890080254897,-0.20980039452264698,-0.20258711935920512,-0.19177036558724647,-0.17999773381587209,-0.16957426696949646,-0.16165759450969241,-0.15624265635401252,-0.15211051148285373,-0.14688389061559898,-0.1382220797159886,-0.12575023704065824,-0.11187658637664472,-0.10018429974755211,-0.09230872338163268,-0.08603749806388739,-0.07718171166529665,-0.06422091109350136,-0.05071220477592672,-0.042652367720797786,-0.04349365022512473,-0.050673455194773315,-0.055930593032533796,-0.05024522144010238,-0.03026341926081786,-0.0005638830696057112,0.029343965467072672,0.04983987677423828,0.05494371984149288,0.044060136404352516,0.022115056924430262,-0.0015308266356201389,1
0.005204631880427326,-0.0026311175651607577,-0.009601394572195584,-0.013002229032845324,-0.013660942609113689,-0.014868140717878068,-0.019096232676566443,-0.02590702456442856,-0.03238808513010816,-0.034804802285817976,-0.03087592923749733,-0.021201809774435726,-0.008447192119475989,0.004222969010005564,0.0140008942424523,0.018799629820444648,0.017820546745642464,0.012083004582974902,0.003572802662503394,-0.006184652046696449,-0.016214192117965005,-0.025766094404636078,-0.034558339481726034,-0.04248729714432155,-0.049083197375458326,-0.05401555555841371,-0.057803023349354755,-0.0614080085992253,-0.06531959820849322,-0.06908505650341233,-0.07149582696300527,-0.07143642007929797,-0.06888148055360094,-0.06571225667410859,-0.06593206828027492,-0.07334949233892984,-0.08723238134495646,-0.10014940174184524,-0.1001329831221469,-0.07685754605704484,-0.030438109012154362,0.02332526745643708,0.06014994245302864,0.06676379831535476,0.057133474223366745,0.06893914115447403,0.14136829919584332,0.28929578472877693,0.4884168874606291,0.6786727045641845,0.7852168918096234,0.7488767699922677,0.5535623671639858,0.2389387475215618,-0.10863792922468538,-0.38761672366275146,-0.5237788045476464,-0.5015510339222848,-0.3668487396073591,-0.1995943354224852,-0.07095387400020756,-0.012243773156331902,-0.013515162974664024,-0.04455535909976786,-0.07758962420950993,-0.09848359825691794,-0.1060088429559865,-0.10542468561991292,-0.10281720664079363,-0.1019828982762462,-0.10284480624928048,-0.1025048556804538,-0.09889611877004321,-0.09307339201010266,-0.08789836872555923,-0.08544948867850516,-0.08596268258637105,-0.0885834092530532,-0.092639353482743,-0.0978274849613905,-0.1031675003671856,-0.1069225911612308,-0.10815410132024648,-0.10736890334634173,-0.10548246995381738,-0.10292383820975598,-0.09932838471380424,-0.0938872596868395,-0.08648737354711306,-0.07805579529451055,-0.06981442261465615,-0.06271669350892474,-0.057103521190350975,-0.05229432989455052,-0.046422226384300165,-0.03723443732819702,-0.02340006459857993,-0.0048985223759982904,0.0173616225607805,0.042316337391919034,0.06961398344403462,0.09938829164175217,0.1313516060672403,0.16461313011176765,0.19793622028363245,0.22961685696854603,0.2571825274166856,0.2781044153343605,0.29180186392314994,0.30077144353513313,0.3094805479330173,0.3222030079270385,0.34039472949997546,0.3600171571359697,0.37145616796542036,0.36373876708477937,0.3304197996131066,0.27281135302333637,0.19888396472071806,0.11994628008634786,0.04730056220319977,-0.01145185652998204,-0.05532657649855059,-0.08869889239128011,-0.1164592728449783,-0.14057164961578134,-0.16054181185798178,-0.17557295307939585,-0.18582427732999857,-0.19226780124535137,-0.1956797385749751,-0.1959624421070464,-0.19242259950294602,-0.18445014622544204,-0.1725865810640097,-0.15937425566383154,-0.14818883606916902,-0.14029996595973865,-0.13310985044366624,-0.12213143563031434,-0.10527333492537654,-0.08489785803122128,-0.06577169182679815,-0.051994488084393116,-0.04619297997625958,-0.0501708436185993,-0.06441141762275081,-0.08602259790922899,-0.10770784535209038,-0.1202110398489583,-0.11738851569960695,-0.10074860917445337,-0.07977727429260671,-0.06610818062298002,-0.06458866479618657,-0.06839299318539292,-0.06335885159844983,-0.03927169425979685,0.0011728479778520783,0.04382397191198638,0.07319301546816695,0.08230303730034487,1
-0.011197485889648457,-0.018150460918402264,-0.020234394298136383,-0.017440799294933074,-0.011874168519632234,-0.005695715216619578,0.00034829435926597057,0.0066636667045842975,0.013338348880801449,0.018988540177324945,0.021616871885267237,0.02075496395569331,0.018162628830160444,0.016544173156856787,0.017885962525451812,0.02237244955961562,0.027830784116456415,0.030028251578128464,0.024571465448058275,0.009691267290126109,-0.012587184466207487,-0.03781959096492527,-0.06074019435486406,-0.07601204062593156,-0.07995335066141533,-0.07301798414964918,-0.060164560441114574,-0.04790012500008087,-0.04025311588198681,-0.03713900956373577,-0.03587336126779057,-0.033702716099905106,-0.02986420916923177,-0.026860289456009944,-0.02919277310005936,-0.038820238368039356,-0.05166364481030952,-0.058956805512716,-0.052027625837113955,-0.02841783837680409,0.0034206828221062646,0.02681218240653037,0.028858758702761084,0.013380052692315271,0.004087478055795929,0.03508145200133331,0.13307396024602142,0.2995558101303972,0.5012365577076663,0.6739897045775158,0.7433088763753065,0.6576162613777083,0.41801378545962437,0.08498126587572336,-0.2444112154164033,-0.47830471075977227,-0.5685929774078373,-0.5250746386834882,-0.400829990772096,-0.2604178215739116,-0.14914717232561886,-0.0807459029899544,-0.0467898398864548,-0.033561862437423734,-0.031459466675367115,-0.035508168299193954,-0.04295468174704316,-0.05146347841862421,-0.05848724736213242,-0.06184480364175065,-0.06100744291053028,-0.057665224692642215,-0.05476246581250735,-0.05482476599602715,-0.05864369173305391,-0.06515949480408578,-0.07234153790069883,-0.07825594383877803,-0.08241646903981124,-0.08597853391467791,-0.08976802666487008,-0.09300015897901512,-0.09426293487965358,-0.09281856739870564,-0.08897015477341814,-0.08373234400987777,-0.07811816988422104,-0.07262470709012721,-0.06726957140892187,-0.06172838947655316,-0.05529927731700197,-0.04719883653312895,-0.03742982377575834,-0.02689744162763457,-0.016022640179762022,-0.0039021487982878866,0.010781871876535173,0.02878629789640786,0.050317260056496144,0.07532621540945443,0.1034694470315615,0.13392169701697437,0.16537589489594923,0.1961150795563318,0.22424787065676868,0.24817703578105602,0.2668697281592251,0.27973949815878696,0.28647271094694765,0.2874698845826612,0.2843910343962918,0.2794730108784525,0.2741554959124183,0.26788397887464743,0.25754305341071526,0.23906614339426366,0.21044075000647275,0.17273025245040236,0.1286893364017735,0.08130008240351264,0.03333208978519651,-0.01254212151154134,-0.053828314711715744,-0.08884997557163389,-0.11736281653247997,-0.14024508665765015,-0.15860286418403127,-0.17296388834113158,-0.18275083079407511,-0.18688861352881975,-0.18541127278308545,-0.180067410839563,-0.17327369368457174,-0.16687671483355707,-0.16178475338604487,-0.1579289043367286,-0.1541799059767547,-0.14903024700121317,-0.1416817345340072,-0.1323048624373042,-0.12153810441406399,-0.11007864123469353,-0.0988263290884774,-0.08877636620228889,-0.08031460003120987,-0.07312917795115507,-0.06670990919299667,-0.060347743750825855,-0.05297466087760953,-0.0437014423054955,-0.03267027685809894,-0.021167070253386495,-0.01059756792070465,-0.0013778055515730192,0.006798274675728303,0.013842373243125424,0.019150054221718428,0.022799470071019404,0.026189139833889374,0.03076265444787775,0.03655426955101554,0.04242016814529098,1
-0.0007831963582362576,-0.0032078278158849957,-0.0045069686755067374,-0.004285650785631222,-0.0023003729771747822,0.0009889322407046867,0.0048170949167774865,0.008739634946006901,0.012497677135776998,0.015505913843898204,0.016987128791377443,0.017062818447690052,0.017289975492370924,0.019286260617606993,0.022973461745235263,0.02630831208553924,0.026415825918853664,0.021679033473720456,0.013089553295587386,0.002923410942970741,-0.0073362186555895525,-0.01713903260611616,-0.02586797152555914,-0.032787260053294874,-0.03800207094650257,-0.04248563924386027,-0.04695625704437474,-0.051319360251048295,-0.05513096724232766,-0.05817924769487698,-0.060218234247629995,-0.06051211001942121,-0.05864315713616675,-0.055846646957987994,-0.0549819564797036,-0.05861054623623915,-0.06615678381004096,-0.07217509296032402,-0.06764557587544698,-0.044765206578774024,-0.0035821082688112437,0.04433570677139465,0.08108049139547531,0.09606533135263884,0.09732147660464659,0.10869719581129138,0.1549573192980171,0.24672639281914938,0.37166151972624994,0.49271197556882906,0.5571049616439219,0.5170981291118042,0.35384051446358333,0.0924297697251434,-0.20052217952920315,-0.44016199553432855,-0.5596041776470774,-0.5396755189949798,-0.4146970124836456,-0.2515427457057939,-0.11409248511677925,-0.03411224289508229,-0.0067846175829943765,-0.00897254199891125,-0.019639668602980755,-0.028133240739526003,-0.0327037734912341,-0.035634702481716574,-0.038937928880820864,-0.04274637914683745,-0.04586177063853549,-0.047052475334860726,-0.04605187148211141,-0.04361196853377875,-0.04097785843742238,-0.039643334643100256,-0.04108198187673376,-0.04575050277454844,-0.05257090746692555,-0.059709491242934364,-0.065457866747745,-0.06866283411216927,-0.0689764409592159,-0.06697867195507048,-0.06403993599074445,-0.06155160214798307,-0.060096627430456455,-0.059682128118170724,-0.06022098850420747,-0.06109824283763116,-0.060911491595795036,-0.05812913476672196,-0.051607995725294814,-0.040812175401772,-0.026299648242636857,-0.00970407916084635,0.007274809348466558,0.023959167278985664,0.04096321429853497,0.059512852390829075,0.08065778618937433,0.10481738674698331,0.1314883847214905,0.1592986188078237,0.1861928319496361,0.2098131790423304,0.22854420590247218,0.24239086911885438,0.25230225859386646,0.25870761340024545,0.2614086472480971,0.2607216566700788,0.2578177723937535,0.25329452618838305,0.24567620447125088,0.2320714232208383,0.21008405881492004,0.17894807459191545,0.13946977069708752,0.09356863382525421,0.04459718686089734,-0.0026526045852963906,-0.043863066372395516,-0.07722324136080094,-0.1033582550678718,-0.12378698492342244,-0.13974543081324578,-0.15179872381457052,-0.15972098981228405,-0.16295806188697826,-0.1616239267203971,-0.1568864429714414,-0.15020835263520338,-0.1425190502205762,-0.1344873539365884,-0.12713504022615296,-0.12155333211978228,-0.11795352975147831,-0.11544584598694473,-0.11302532919454593,-0.1101126129179438,-0.10621773872094019,-0.10113540538502926,-0.09526778005086503,-0.08903301073980617,-0.082413345400914,-0.07550247501448544,-0.06893326700453238,-0.0635290510110617,-0.05953704754689852,-0.055958093239094175,-0.0508303826279338,-0.04225905568141913,-0.029714917712522885,-0.015216742138153362,-0.0023449307576610505,0.0066329558661562295,0.012080421058284621,0.01599562228072563,0.020305818010760663,0.025661485028368635,0.03148197958764097,1
-0.011777189314395253,-0.00950212052727057,-0.009767332989905423,-0.01355621253073091,-0.019273276351330478,-0.023368697740305158,-0.022104914345143008,-0.013783648971476953,-2.1566181435656528e-05,0.015101841573975754,0.027176180136860552,0.03360936501484496,0.03455353302558125,0.03177142417543574,0.02700203835721558,0.021307700607978295,0.014756489547182982,0.006560130304895178,-0.0035655927650742126,-0.01408401276442509,-0.02243458100516688,-0.027545221813125235,-0.030820274233346965,-0.03419595878884437,-0.03823316571293345,-0.04227138092389643,-0.0455039735070215,-0.047804113221801905,-0.0496670188838295,-0.05153913045610439,-0.053493376906984975,-0.05537047916189515,-0.057079180340895,-0.05895516831418902,-0.06189085137321296,-0.0664841735844732,-0.07116090598801837,-0.07143134495995,-0.06222538384907674,-0.04197103984427622,-0.015532067536432452,0.006829555574727675,0.016363371319594235,0.01561055696074434,0.023186264410140607,0.06784236951820999,0.17346724478732936,0.3423543698257422,0.5444252523489562,0.7187087558915989,0.7916193738384681,0.7086415938797958,0.4648794888869902,0.11644856477140134,-0.23778188716076357,-0.4981879163994348,-0.607037977483967,-0.5676641012593144,-0.4333256834227509,-0.27548054142412937,-0.14932699695862342,-0.07588272272881606,-0.04765643928257192,-0.045938380865271904,-0.05379330353528737,-0.060906970474231784,-0.06384718102702014,-0.06346687112953292,-0.061577060520253614,-0.05982236529962509,-0.06001997651771423,-0.0638037660102837,-0.07147801184757281,-0.08120732116293028,-0.08997554032388853,-0.09569380145481508,-0.09791307869817938,-0.09722616106780747,-0.09476638877260653,-0.09132690251002526,-0.08669961278772048,-0.08067314456862625,-0.07431250030772756,-0.06930057727260293,-0.06630648032616188,-0.0649737225528381,-0.06484870737031886,-0.06514169026488358,-0.06427979094259856,-0.06050056826790142,-0.05278177133121857,-0.04133356486560174,-0.027167129865874752,-0.01130677352372661,0.005176807356852768,0.021142404367427838,0.03625889514334981,0.05119961439389151,0.0665321158953957,0.08259870298748703,0.10067326468262855,0.1225034285736191,0.14822032309651703,0.17574958277888367,0.2022227728394515,0.2251569668055026,0.24277718073865354,0.2542233041327655,0.25982575043941974,0.26154869603844705,0.2625134939778355,0.2648722804139206,0.2683495708381773,0.27055719581837157,0.26757915680372946,0.2550334854715053,0.23029821907000614,0.19395399249713607,0.14900701681103162,0.09981318043634049,0.05144629651909075,0.007967165707800102,-0.029303473687051176,-0.06172845959726535,-0.09181870838418274,-0.12079727298121193,-0.14701624748847764,-0.1671486813363602,-0.17907768905200677,-0.18370203627086445,-0.18415520126978796,-0.18347866195763932,-0.18289690715749568,-0.18178026820643745,-0.17891553519092504,-0.17374014398312743,-0.1667035502391368,-0.15885453423270215,-0.1509596694021325,-0.1430115849693006,-0.1344861675761498,-0.12459116042083335,-0.11262869864268439,-0.09891042062537683,-0.08533722157451927,-0.07445904943239026,-0.06747702003243836,-0.06332083816451328,-0.05937911939998736,-0.0527663059990324,-0.04196255272508677,-0.028173437846182894,-0.014794925066410235,-0.005080685737734392,-9.857666455072994e-05,0.001551754453613892,0.0027490334804418405,0.006472987001206732,0.0144193524920041,0.02582522354814207,0.037622323672399476,0.046560304992011095,1
-0.0035223207781308117,-0.008049756966287024,-0.012925155808780717,-0.015781227310303576,-0.01498351289543714,-0.010100263225910032,-0.0016761575754205495,0.008669172761969515,0.017791866368397715,0.021909789973238964,0.018958915075117048,0.009864134842022023,-0.00237583813272221,-0.014242415638527966,-0.023044965991692607,-0.027816809574704747,-0.029147542113807483,-0.028754595023476496,-0.029330064169053795,-0.033483134107878176,-0.04206402119594661,-0.05352904671581076,-0.06467309227736187,-0.07242153572802827,-0.07588935988361406,-0.07686159794890188,-0.07806751566611729,-0.08130595243704494,-0.08708134038945202,-0.09464301286412607,-0.1020095820387886,-0.10718492269639643,-0.10988293398767196,-0.11198782466024507,-0.11612256433679832,-0.12330802558294436,-0.1320420133367965,-0.13960261235926166,-0.14393219726987083,-0.14481233028864532,-0.14428055175710877,-0.14502431421731005,-0.1450334744473252,-0.13158604790337428,-0.07967699596387716,0.04401229910745868,0.26945817130578026,0.5995901266731176,0.9834711246736534,1.3120817909375149,1.453539954439376,1.3166943089876564,0.9090700227869414,0.3486955393436273,-0.18668436847718453,-0.544754603010759,-0.6658317549986824,-0.5947457569946772,-0.4365125257904174,-0.289940696212844,-0.20342796074923228,-0.17337315760441585,-0.1719741126899843,-0.17600932118844234,-0.17756249328020324,-0.1785245799897061,-0.18160080981653431,-0.18567017063437613,-0.18636540730765006,-0.18006104557884137,-0.1673826917508621,-0.15267670644083728,-0.14059265196717818,-0.13365244279264374,-0.13197476765328034,-0.13431604737153552,-0.13953829569206183,-0.146825341715763,-0.15474212518972483,-0.1610473157056642,-0.16326108090641403,-0.15943746812882406,-0.1492708349612692,-0.1348862352400574,-0.12031423256682075,-0.10915418900855214,-0.10189981686263704,-0.09551959553012133,-0.08587445671301502,-0.0710637289486371,-0.052516854080425626,-0.033084689359413944,-0.01490579696231058,0.0012950566796593628,0.015825928728038247,0.029323969036670533,0.042664531925961424,0.05714987812381747,0.07443271176266986,0.096244831110341,0.12310703292966241,0.15275253599842958,0.18085641344868025,0.2040488360786521,0.22239858224784326,0.23908961303523937,0.2576002680193922,0.27895273374068036,0.30100682664005324,0.3194146793910645,0.3291403364542521,0.3264599849803564,0.31144388000719525,0.2891641959107474,0.26756491833626195,0.2525537894572462,0.24335753810150137,0.2317339707822225,0.2066903662852534,0.1622868737548949,0.10253127112570268,0.038901050076761735,-0.017284315189908958,-0.061246274670842954,-0.09518315852706226,-0.1231761838342428,-0.14591924761783379,-0.16023720855674262,-0.16339055318200243,-0.1580166287291433,-0.15260722012271383,-0.15572517706427286,-0.16880599683612474,-0.18494020840047745,-0.19427368769308118,-0.19019748120727156,-0.1725051744583109,-0.14687977215629797,-0.121226782478843,-0.10183399386067543,-0.09238901249040912,-0.09468283162434994,-0.10760989110984404,-0.12469893973074,-0.13442373153282858,-0.12564624878430952,-0.09540020764111558,-0.052851327936577354,-0.014714389102516164,0.005147517370975168,0.0038890033725160755,-0.009503526546430344,-0.021015012515798296,-0.02147134845026393,-0.011605440187290253,0.0009558844448885676,0.009010890983175923,0.011021930468979264,0.010095016863845847,0.0094856165721359,0.010294166812160811,0.012149738401676387,1
0.07386127964899655,0.053956747201227985,0.03726929449636846,0.025052682136555905,0.016016733153499142,0.008937476244974037,0.0035995377791563452,6.853758401574768e-05,-0.0014200685933249205,-0.0004238153825182802,0.0029567185359425357,0.007715323931696235,0.012053862566953413,0.014007384755407228,0.012847896521259053,0.009359970968755607,0.004363637619581544,-0.002045653736197141,-0.009476627384608603,-0.016282033138953662,-0.020411792398798673,-0.021788489075553287,-0.023795080745507614,-0.03173220250594557,-0.04891679847720966,-0.07315633232947209,-0.09666778802908192,-0.11061159953282573,-0.11125803787317376,-0.10263054648192751,-0.09365121185680322,-0.09242259594832478,-0.10149858932967022,-0.11668331171841151,-0.12996804763866002,-0.1345455116341687,-0.1281998834550979,-0.1132824129825286,-0.09437965668640194,-0.07592067234043777,-0.06083727160208066,-0.048885463199288035,-0.03410262858980575,-0.0036518997203836053,0.06089815841660491,0.1802817229088674,0.37008103010245474,0.625708757999681,0.9045208315847664,1.1223847151445263,1.1801259510332647,1.0136173494538179,0.6388010592007846,0.15869555656542583,-0.27982074482767444,-0.5557437911905929,-0.6269337766056783,-0.5374602823370653,-0.3798825361498029,-0.23927768791665704,-0.15632801623721038,-0.12767563579427677,-0.12923642688952885,-0.13779393633965054,-0.14055592069851738,-0.1353042444403615,-0.12572681884562356,-0.11602659864721675,-0.10797910054304341,-0.10092231405088543,-0.09380723224889403,-0.08759092213814608,-0.0854691550929168,-0.0906411395784533,-0.10345355576690961,-0.11995178767702724,-0.13343743528480284,-0.1382201733108624,-0.1327138019854956,-0.12014332491627928,-0.1066286459561107,-0.09749944421750713,-0.09449283533671415,-0.0962813078018459,-0.10079156582233967,-0.10571063401437031,-0.10745228294402713,-0.10155964367992923,-0.0854214884428063,-0.06141990865207518,-0.037066748395186186,-0.02095384367707804,-0.017256246212067592,-0.022403609563016954,-0.026815356801477456,-0.02098924374465581,-0.0010612994988644826,0.03004498392752913,0.06592457152936951,0.10099986261638165,0.13245286142973883,0.1598111465147637,0.18386850578298053,0.2059915020894335,0.22729544113999783,0.24738346378774737,0.2643071642012965,0.27647952119578995,0.2845245337603108,0.2904983099739575,0.29482761496251386,0.294627108183638,0.2856262809825524,0.2656700931560793,0.23620838471988673,0.20055468831088089,0.16101970640779104,0.11775717636733546,0.07084242274288458,0.023908716112395423,-0.01608308647101077,-0.04474895996883234,-0.06549191753843198,-0.08771336232300242,-0.11905471303341175,-0.15824628304936528,-0.1948349080180431,-0.21626433142255963,-0.21638126414306563,-0.1987723816389304,-0.17382844281200338,-0.15264486291039459,-0.1412777143290929,-0.13882101626089094,-0.14015715512608182,-0.1402626276526567,-0.136586216811168,-0.1285961781482027,-0.11681058445489385,-0.10337588434562914,-0.09215464594573129,-0.08615350571532286,-0.08443166456303088,-0.08164387684438269,-0.07131528436842502,-0.051393734766432525,-0.027308717882381074,-0.008843740832210175,-0.0029936971725009927,-0.008453743723339752,-0.01607876893107014,-0.015418342898718657,-0.0028149752459111985,0.015636989706355877,0.0292256391588513,0.03147026612470871,0.025103721190258027,0.01912319762163018,0.02138533924321243,0.03355765971703327,0.05081319701190881,0.06485413666071534,1
-0.0005753064485257871,-0.008902761132155606,-0.015365390578916355,-0.019552264961758305,-0.02057620809613089,-0.016756568301348383,-0.007143420507991123,0.006093444451866088,0.017625578005867643,0.022397241281824673,0.019286074342253007,0.011542926721217994,0.0043557501516745655,0.0014946338818629932,0.002847184471848194,0.0049951101687845025,0.004351048979595406,-0.0006792051353295939,-0.010106827345979877,-0.023193521056094284,-0.03819809486102789,-0.052571785711118355,-0.06424235637076137,-0.07265808446491583,-0.0787648943252477,-0.083815918125266,-0.08831340482083197,-0.09222501351398599,-0.09533999663576795,-0.09737455459452848,-0.09854470740519702,-0.09986623671746472,-0.10293929528830381,-0.1097612897352517,-0.12155844345487261,-0.13659718587323214,-0.1489015215353957,-0.1496271155582959,-0.1323019561779125,-0.09938827834559377,-0.06361856998355216,-0.03985042949667121,-0.030734375835740048,-0.01772774934576508,0.0335596564592589,0.1574152058638698,0.3696815990848071,0.651354283650176,0.9399625148538449,1.139578852998812,1.155501680576556,0.9423230530635849,0.5381812501131787,0.059407752170950734,-0.34784423046191854,-0.5742795859375898,-0.5946093927301563,-0.4682083978094361,-0.2958415800319687,-0.16256898092531408,-0.10243062866425384,-0.10132175183944864,-0.12537531270547575,-0.147502926914433,-0.1565610646569711,-0.1535854535638565,-0.14450055499832265,-0.13451680044854764,-0.12640818613874977,-0.12105400620714517,-0.11806670752534686,-0.11640523316335645,-0.11496085281351472,-0.11319720443078388,-0.11144885647498236,-0.11041402971493479,-0.11037710170897282,-0.1109012861774563,-0.111362421936346,-0.11138122628602605,-0.11063948708120017,-0.10889319193626971,-0.10613844322803712,-0.10257643614239026,-0.09836154542223166,-0.09353268845681097,-0.08838973608491622,-0.08321519978312633,-0.07758902378907107,-0.07107710766974598,-0.06407845360409009,-0.0569331738391982,-0.04910107941209085,-0.039717680959117346,-0.027621546128101634,-0.01063024015054443,0.01322368907008432,0.04290949930661017,0.07418755518251594,0.10249161914080274,0.12558006652564802,0.1444848552863105,0.16293487751461883,0.18474304694009477,0.21056633614639947,0.2375787915445089,0.26186924971499675,0.2804198305189156,0.29183977568831493,0.2965003205734155,0.29619323503471323,0.2930606231742647,0.2880420088765791,0.2800791229508567,0.26692083540915573,0.24679166584550238,0.21913285157957701,0.18392511559304897,0.14178784053744398,0.09523214506137809,0.047986651350798264,0.0024835101955765007,-0.040714432006463915,-0.08092484565000124,-0.11612074465062555,-0.14408086102727402,-0.1639542071530545,-0.17665329841842264,-0.18412060760343363,-0.18790415194157456,-0.18860780437406538,-0.18692169380497928,-0.1841178923034164,-0.18088559713151467,-0.17638537186824874,-0.16909523024733542,-0.15842328031637232,-0.14528848255447394,-0.13155395974055153,-0.11902756536507503,-0.10867120713323496,-0.10050348169453768,-0.09374906257876413,-0.08705829008178162,-0.07884201647228152,-0.06756470958933042,-0.05280637789942414,-0.036398868559986884,-0.021476466079281806,-0.010018225100937004,-0.0015851221380729537,0.005544592987542379,0.01246244050143257,0.018841886209768094,0.023393857073889617,0.025100091596141003,0.024458896671742655,0.02350619162305347,0.024293564909557846,0.027274449424895778,0.031128973676037487,0.03401161827240361,1
-0.005767454031284328,-0.017194077416287964,-0.028400259678034417,-0.03819698694528822,-0.04464165143133209,-0.04545335574692612,-0.038989395754038356,-0.02593835298832059,-0.010495380104800554,0.0014947746963574829,0.006676027724824371,0.006376525719013695,0.00481049352631975,0.005687115197484336,0.010203379179288232,0.0165805794131239,0.020674218464386055,0.018407898243864646,0.008542322443549499,-0.007245105688489093,-0.025987081616170252,-0.04407990262891766,-0.057596983846622186,-0.0638485711668475,-0.0633210755303163,-0.05962651307381745,-0.0571910582626852,-0.058909820125405965,-0.0651699360576708,-0.07406416151670227,-0.08238229623994334,-0.08736563225290965,-0.08845861982323033,-0.08752268983391194,-0.08764107370118043,-0.09127685885530058,-0.09773525949024182,-0.10173795951834365,-0.09536302829159016,-0.07275206711145073,-0.035682140238989274,0.004327324688253515,0.032872008182565526,0.046135815473970165,0.059629928589484404,0.10284672550016513,0.20245508749517516,0.3653282015891562,0.5688085123620661,0.760202247459635,0.8690749807449589,0.8332242916562388,0.629180095814158,0.2919229524150383,-0.08968927416069959,-0.4059312214294593,-0.5740528247939825,-0.5739542916518742,-0.45138907086117774,-0.2878545612769931,-0.1555042272408937,-0.08559038660368865,-0.06833956512216294,-0.0761417653148099,-0.08652577616029505,-0.09064221874094877,-0.08980609445189083,-0.0883379661526758,-0.08881762816544506,-0.09156900906498387,-0.09564476002749923,-0.09911219302588291,-0.09992562000662084,-0.09758563522398686,-0.09350505351016783,-0.08997882988641273,-0.0891304030582475,-0.09173004414367694,-0.09621385857938539,-0.0997720597720961,-0.10078634163633383,-0.09933116194133543,-0.09577874079503393,-0.09049447302994224,-0.0847985472468939,-0.08087198613738514,-0.07995612106580496,-0.0807793026794433,-0.0804347190497808,-0.07668894065372023,-0.06870516680022978,-0.05644868281622656,-0.040788853726758154,-0.023624732614494815,-0.006836903648646621,0.008925853151945377,0.024391223034792738,0.04124149453939532,0.06149810564214703,0.08620253222939049,0.11415399307392246,0.14201958916467033,0.16623217231715118,0.18552191583251934,0.20154641680888183,0.21700758989593288,0.23324279674513976,0.24914256245495958,0.26194547593657735,0.26932186890057497,0.27138681593428676,0.2706217747084888,0.2690567696458447,0.26587724801318535,0.25836668457275547,0.24435020973054983,0.2231961177609931,0.1952523959340911,0.16085949127910223,0.11994416429094633,0.07305826361183057,0.022720003402161168,-0.02697573107486704,-0.07169674640192503,-0.10788645447417275,-0.13399702291851545,-0.15144234598867162,-0.16376520203941208,-0.17422648579221459,-0.1838735564304177,-0.19155445972147767,-0.19522216838706777,-0.1935207434088737,-0.1867999165550271,-0.17670866506093977,-0.16537436036104458,-0.154997405547991,-0.1468723480139207,-0.14041617268991796,-0.13378745240276912,-0.125386707669275,-0.11456117617189553,-0.10137689388393743,-0.08634243249975268,-0.0703165853868503,-0.05438111977326773,-0.03993752214861083,-0.028643199811086796,-0.021439679367620555,-0.01757305352651788,-0.014688183695501861,-0.010114800120613457,-0.002722687102610498,0.00644154910029961,0.015137274665028157,0.02112604243253418,0.023438116041147487,0.023481593759733424,0.0243128775584636,0.028108779784238494,0.034276039076367004,0.04035153741744214,1
-0.003031093390263403,-0.008494189614980122,-0.016986993915881776,-0.026399492465713832,-0.032592138706785644,-0.03148339018839803,-0.02202712319166865,-0.00735239234033069,0.0070166727856543305,0.01642403193052207,0.019625904347352743,0.01880836744322605,0.017070656480143314,0.015665942574186423,0.013581361895221414,0.009357585582254012,0.0026769682512334477,-0.005719958682248666,-0.015153798951965254,-0.02556347115174289,-0.036966024364856895,-0.04905687344772512,-0.06137022194293977,-0.0732756007133141,-0.08354720301217533,-0.09001626142656777,-0.09073122646684512,-0.08634929992940966,-0.08065027708690614,-0.07795626661343538,-0.08022444835144307,-0.08655222269426259,-0.09490036952615122,-0.10396968217656402,-0.11335385773091135,-0.12185987482106127,-0.12604252726157783,-0.12104743484543042,-0.10337875051626227,-0.07433788986617053,-0.04239109609142774,-0.019450287401397055,-0.009754699238420064,-0.0005484011723742299,0.03668792711278819,0.13494401972729633,0.3148275773479087,0.5664605533260965,0.8371290437325785,1.0373397747702762,1.0728348605296727,0.891225216614573,0.5174653877901906,0.053993702168469326,-0.36001128440175484,-0.6105054123467447,-0.6578400229590473,-0.5458381987640805,-0.3671225685846471,-0.20893465166534997,-0.11511176095977704,-0.08368320016065098,-0.08932181127414224,-0.10616253282495866,-0.11823408390376301,-0.12048188358772502,-0.11569709565051915,-0.10919316625188348,-0.1042534443095109,-0.10136841237290536,-0.0997036000615028,-0.09828347193919883,-0.09695091482004092,-0.09661754090064772,-0.09826110244768982,-0.10182710140524592,-0.10566326645240376,-0.10720628359518837,-0.10533961864859955,-0.10185287914918494,-0.09956638965057162,-0.09931091055616338,-0.0995967893702279,-0.09839752419511247,-0.09432905815057649,-0.08715060690966846,-0.07772301266757269,-0.06728120840857153,-0.05687204492312229,-0.046979694334130365,-0.03746063481017446,-0.02798617961142502,-0.018110901203795177,-0.006831692647208263,0.007191326374868124,0.024436954032502248,0.04414606392864397,0.06551480591514991,0.08837308791358567,0.11244739554174091,0.13693724474875088,0.1609016819783475,0.18334487330539187,0.20350558613088632,0.22170377623321183,0.23900779914659265,0.2555809067803252,0.26988986279770893,0.27941410257043653,0.28203543306380685,0.2776498173454192,0.2685944866569565,0.2580202389915445,0.24771330207816156,0.236637993558312,0.22087274482303176,0.19567359510148208,0.15868409341254108,0.11182220852789695,0.060483114710002124,0.010771228223067877,-0.03347862573073263,-0.07153547811573004,-0.10385029462734985,-0.13039658852806862,-0.15102456457849403,-0.16599169346033438,-0.1758824641718886,-0.1817083367165686,-0.18470078545389731,-0.18546123138233742,-0.18405793408195847,-0.1810743162650489,-0.17733772915476403,-0.1727796352781831,-0.16650057735001184,-0.1576392240260929,-0.14607964745844423,-0.13266510768185172,-0.11840483209293383,-0.10376566817611836,-0.08927208140396246,-0.07596243407236848,-0.06482918787968321,-0.05622287605108886,-0.04927516604915206,-0.04193840647594638,-0.032550936764760896,-0.020956558625261235,-0.008100830504238547,0.004138797996231302,0.013276654603168177,0.017972559957020854,0.01927818949476589,0.01963940851307838,0.021125295080472763,0.024440990258408093,0.02897752683047596,0.033711109557840166,0.03793714212446672,0.041200328566450325,0.0432065345111894,1
0.030561042415819854,0.023882612299778838,0.01725747097871084,0.011112748508215451,0.0067232268059536915,0.006009125126329146,0.009998646337784148,0.017592987884652418,0.025874969107230177,0.03190965287013554,0.034747477759172835,0.035614176161011916,0.03611008844078356,0.036482705460385484,0.0353163289214562,0.030566520042494758,0.021062843055823788,0.007096313218570366,-0.010154909570558038,-0.02914581484084546,-0.04774221230441067,-0.0630470089588279,-0.0724899863016116,-0.0756716820573993,-0.0750241146579197,-0.0746662341792594,-0.07826361147778713,-0.08706342200007726,-0.09932051146956722,-0.11119125951536997,-0.11839976672772538,-0.1185703008652744,-0.11304015100738997,-0.10641131282451555,-0.10411186919620566,-0.10914205409708354,-0.11975216307565054,-0.12972520700792958,-0.13123998841472573,-0.11969757257779517,-0.0982654985954219,-0.07681990357341528,-0.0626006975802045,-0.04900029557334619,-0.012456286023050095,0.0801891662663803,0.25757880467758365,0.524351546806286,0.8405634150042076,1.1167052091277587,1.240547366393399,1.1293816494014566,0.7793845232744145,0.28125653135374307,-0.2129863008073048,-0.5587557646781733,-0.6840628816314105,-0.6133795291740953,-0.4402772916123777,-0.2688874868410218,-0.16167321269870705,-0.1245650593867578,-0.1289732497270237,-0.143143358530983,-0.14955756645463342,-0.14606280984063008,-0.13858136783157435,-0.13293972807987384,-0.13099291475829178,-0.13138843779691411,-0.1320073511914104,-0.13150669570574816,-0.12920532094015996,-0.12470398865786259,-0.1183243285421974,-0.11149685588120303,-0.1060924213808692,-0.10309936743490938,-0.10208833597664893,-0.10192881945637287,-0.1015775904126788,-0.1003393893678326,-0.09797376036627647,-0.0946017550808254,-0.09033761597076635,-0.0847887918500022,-0.07724631421009673,-0.06792611405468812,-0.058382725629765604,-0.05015718194148859,-0.04308330950754922,-0.035093089453994766,-0.023929672067202278,-0.00856648271534002,0.010688128443107212,0.032392483080113096,0.05486058618161696,0.07716911261795717,0.09894865444449837,0.12032461163219613,0.14225211651488495,0.16566664009651827,0.1904190875956904,0.21523857273044344,0.2380155525938069,0.2561856486556378,0.2677750759099933,0.272629562791028,0.2726439193987028,0.270462619075623,0.26751744397912347,0.2633109810615973,0.25638815911673185,0.2456381417270049,0.2307659470377841,0.21166037195460524,0.18730811630296296,0.1556318389817391,0.11505287764433939,0.0663155573075497,0.013000075472081277,-0.03912377407826739,-0.08411003528962566,-0.11844966503278244,-0.14208722621071923,-0.1575107467127379,-0.16814492300709144,-0.17688478549726236,-0.18489754105928724,-0.19141379863634111,-0.19494498978549737,-0.19436985964285988,-0.1891844227750304,-0.1795883125628085,-0.1667356266169274,-0.15312385225050823,-0.1418254924070126,-0.13439292677741133,-0.12989260300376582,-0.1256770258516249,-0.1185535941483413,-0.10641417119024828,-0.08973675763029733,-0.07118963777287513,-0.05403610781346721,-0.04081420146671248,-0.031913961927285996,-0.02502052221953992,-0.01695713070021175,-0.006085743948264905,0.006801083951003827,0.018921468534939777,0.027097108141491542,0.029771450515928197,0.02787371452043053,0.02412810137233433,0.021619888763734697,0.02231894840355031,0.026216828057484824,0.03187914938983184,0.03782162126028876,0.04298959445358204,1
0.05179804949177045,0.040038692960826516,0.02720030760915336,0.015817885289472103,0.008683451266820106,0.008177037669163473,0.015263729131745288,0.02788525962500359,0.041051762022640485,0.049947368652298846,0.05262162724624921,0.05005597981295823,0.04475367382389568,0.03884573893393564,0.0327586870619402,0.025474671947227308,0.015876091662399436,0.003792574180670682,-0.010114233096936352,-0.025196028275238123,-0.040969987688014374,-0.05645069511622268,-0.07023847941290774,-0.08136014930277294,-0.08965112558366523,-0.09582908428030053,-0.1014289894923202,-0.10794813137205826,-0.11562970398121793,-0.12331097104122182,-0.12957950966157822,-0.1342726440218563,-0.1388556424402811,-0.14493853411788363,-0.15268558005863525,-0.16074085615634603,-0.16687244892657785,-0.16872351009605702,-0.1648973050187509,-0.15642222711637868,-0.14811915204054935,-0.14641634211092389,-0.15093823624840771,-0.14531281756844078,-0.09475931164468455,0.04646124992785845,0.3144177724327275,0.7026967059601558,1.1358480566779736,1.4768562165506094,1.5787952289165128,1.3602566088406471,0.8611288394384184,0.23723049249806727,-0.310494492375212,-0.631482301830618,-0.6896896449396208,-0.5610968577579099,-0.37234683237303845,-0.22611341241583371,-0.1609009666476352,-0.15920203739923328,-0.18231872625470957,-0.2007865067002445,-0.2044740560068497,-0.19669103592558226,-0.18456889203908322,-0.17342561280754995,-0.16584036063918797,-0.16221933532179308,-0.16099623592610493,-0.15967984116153505,-0.15668922549104186,-0.1519699253389797,-0.1463118994540531,-0.14078249646102847,-0.1361097024548473,-0.13194624222496554,-0.12716907164252023,-0.12091305723499497,-0.11345879701889991,-0.106335299221645,-0.10099094069251402,-0.09750876011151144,-0.09491916522262656,-0.09201197809025627,-0.08771422295683352,-0.08152350556579864,-0.07366521487632663,-0.0645065558223896,-0.05393781523591773,-0.04122710932853549,-0.025597496296761463,-0.006959133417923872,0.014389542714298945,0.038172229790229856,0.06374426054552908,0.0899106745546493,0.11530376577422484,0.1389143157565281,0.16048006287352587,0.1805041375282071,0.1998669174687502,0.21919575033651278,0.23830724783595583,0.255855376235501,0.2699289522155758,0.2796507309411409,0.28554530380829024,0.288177467678608,0.28728718391512653,0.28195773472965,0.2709936958104529,0.25355043449263664,0.22971464217385712,0.20019201191347852,0.16526388622103455,0.1245251026114552,0.0782124814652185,0.028701299433271328,-0.01950097776773973,-0.06171511635174835,-0.0957046720965044,-0.1221466883388509,-0.1426510777988842,-0.1581066258948485,-0.16869560551252777,-0.17466205969406282,-0.1767328106994582,-0.17591016420792105,-0.17330119429280644,-0.17013610276848878,-0.16720841259110192,-0.16394354286765936,-0.15846832798227614,-0.1491370368082145,-0.13588821009106933,-0.12012893712659647,-0.10396407052115712,-0.08940260381836448,-0.07752707089758411,-0.06832874253099618,-0.06115018037543657,-0.05474441241208668,-0.04749796583240379,-0.03865035482704842,-0.029248167413585064,-0.021461645073660152,-0.016825901890378157,-0.014857918652203601,-0.013103127319265315,-0.008840972551855696,-0.0009922480987495305,0.009529944614551769,0.020656589129040226,0.03023169972268009,0.037014466840992494,0.04102105698058691,0.042860281731579256,0.042823454801426665,0.040806089558178896,0.0366803337640948,1
0.028692047991736316,0.02098114725498579,0.011976026332939444,0.002469269060495056,-0.004970676758512208,-0.0074738658727118434,-0.003824662204736368,0.004643073637771348,0.014735162715080985,0.02305295296998787,0.027440336151531936,0.02763265398272702,0.024887300083536346,0.020936748239734466,0.01688130922739262,0.012424115808325639,0.0060137077011462505,-0.0037704135203421463,-0.016633486351824954,-0.03079377474939924,-0.044732362442256195,-0.057820967305555894,-0.06959001128315917,-0.07953320528374834,-0.0874144548065762,-0.09300323045529828,-0.09592277873958949,-0.09667301120580102,-0.09722003852626698,-0.09959188838234,-0.10436543462648881,-0.1109446399715176,-0.11880012812079002,-0.12763517017283604,-0.13608395433121936,-0.14140100211190462,-0.1411869537891879,-0.13454571074956245,-0.12221036583991512,-0.10796207199535798,-0.09939550451431606,-0.10321291464507593,-0.11578992282400637,-0.11571854177202924,-0.06475122221855101,0.07975531517133051,0.34161571486900866,0.6984797381152765,1.0667241461517403,1.3189300698367181,1.3371243568462527,1.0762755395922479,0.5987563480158737,0.053617384400059837,-0.39131779812338474,-0.625526466880904,-0.6374550067866168,-0.5021600750335586,-0.3273368450905578,-0.19431710803008284,-0.13043745960955325,-0.12039870365249244,-0.13461182924701443,-0.15030485662429155,-0.1577165215812247,-0.15660956762944742,-0.15036377241679616,-0.14186771960444466,-0.13236447088662853,-0.12232806614516009,-0.11284898233607718,-0.10568245661667487,-0.1016470570101463,-0.09990855456591044,-0.09916459974655936,-0.09870966872443529,-0.09828278855564528,-0.09754329824111488,-0.09620540694616041,-0.09470704232661287,-0.09404989152689812,-0.09472702874881414,-0.09630258721399902,-0.0977537954251099,-0.09781781939373263,-0.09557091525634699,-0.09108216305860242,-0.08531700983664121,-0.07920045508807252,-0.07275349206696763,-0.06519758484159037,-0.05577784323125101,-0.044023934079197864,-0.029297601603558272,-0.010857259071289635,0.01167772042529907,0.037863727332801994,0.06594091198433907,0.09370894745442529,0.12021810068327171,0.1454461627573946,0.16896480664144756,0.19026258170527138,0.20956334116456013,0.22753909273572687,0.24441554992379913,0.259422304372909,0.27137069923794993,0.2794443131750838,0.28322315471363535,0.28276427919178343,0.2782957023959031,0.2692288658406339,0.2542425003309435,0.23225696573199744,0.2027716963665501,0.16591964040282176,0.12297380219504989,0.07644185486345184,0.028982642168036074,-0.017241742564117542,-0.059926848303082696,-0.09657264814833069,-0.12542026010346338,-0.14593790820805938,-0.15876153248877592,-0.16562644310749924,-0.1688987610850234,-0.1704737695494451,-0.17102985337094354,-0.17049657221777514,-0.16866089438874898,-0.16490649615685102,-0.15835938808176156,-0.14888420961446924,-0.13726583087171557,-0.12466802698161712,-0.11280283610961839,-0.1037326546328639,-0.09823159313160885,-0.09477199828724837,-0.0905827296106699,-0.08357754800663177,-0.07349219114186102,-0.061353634523150034,-0.048349774913571716,-0.035739665432147745,-0.02492529780398541,-0.016495081678710756,-0.009550589864032122,-0.0026414760260765544,0.004819425613525163,0.01244809804503989,0.019755479572141396,0.026621378395069895,0.03316192226427166,0.03937130679714797,0.044778590266297644,0.048549614037278366,0.050219621923447234,0.05009142134021696,0.048613179465286,1
0.031798126666019604,0.02674333133125213,0.019657897060968158,0.01074904800249693,0.0007726764561551062,-0.008378372174541831,-0.01366818807745986,-0.012118191605688323,-0.003348942759879437,0.009084693307978162,0.020011742978838863,0.02624732210960365,0.027769795803907687,0.02634711365584797,0.02373710422240402,0.020598642357482544,0.016447456105308976,0.01061331332255322,0.00286688314872256,-0.006912754049369934,-0.01873708134428639,-0.03196622980636803,-0.04534643754318274,-0.05762320475399125,-0.06806169898412569,-0.07631250503948261,-0.08197268875824382,-0.08492682556969168,-0.08570277143499426,-0.08509003979112165,-0.08410368889748031,-0.08401181019164089,-0.08568469365281257,-0.08943014235278729,-0.09554774013568394,-0.10387504616209961,-0.11229130331894405,-0.11613117364089484,-0.10961925428206394,-0.08982395475711048,-0.06155938615306735,-0.037291812143430664,-0.02807385454730905,-0.030858213682416175,-0.022594442642413597,0.03311332729779678,0.16902192958156728,0.3929176297325532,0.6697190542265321,0.9199704792122421,1.0449425303136888,0.9708907984877604,0.6897143097907027,0.27245764323178173,-0.1559903497179188,-0.4710065162666094,-0.6023977951970299,-0.559335692193528,-0.4139631352326283,-0.25574703763930995,-0.1459571568149517,-0.09917276479961909,-0.09649058419923202,-0.1113409599215526,-0.1259565980268079,-0.13360828073873113,-0.13461790342932148,-0.13190688300216016,-0.12762592383391927,-0.12243007386938055,-0.11668207426010464,-0.11109620594308574,-0.10651298905187444,-0.10341839474270305,-0.10137733699944722,-0.09924436344755591,-0.09611458893779695,-0.0917636200237589,-0.08653859317780473,-0.08117329197190626,-0.07662968917663084,-0.07389278290057363,-0.07330570451669904,-0.07403742768117312,-0.07468634085029832,-0.0741019219274297,-0.07118079469399306,-0.06470714582592764,-0.05417405192197468,-0.040538976450478145,-0.026294171320006162,-0.014613320794967799,-0.007354404599151598,-0.003420701497409591,0.0007558164920122949,0.008953365761031076,0.022958521156827987,0.04183317427506586,0.06314348299864064,0.08536150438868413,0.10871201315279186,0.13354580931109133,0.15882959163028787,0.18246535374519374,0.20278134811401705,0.21942382304824706,0.23287905931598418,0.24378916795175376,0.25254861046662863,0.2590706277117123,0.26282843840150993,0.262730432333519,0.257320555426574,0.2458515975200584,0.22882464093419155,0.20703441148727741,0.1803605870808737,0.14785757465667243,0.10918859016118497,0.06573878303779371,0.020118503595176432,-0.024660926751415235,-0.06520318012238238,-0.09845576677842703,-0.12346786316225508,-0.14168570681529832,-0.15505596339794833,-0.1643507864145176,-0.1695469737529134,-0.17111868489399829,-0.1703611429822911,-0.1686966500458678,-0.16673397163148085,-0.1639177334851039,-0.15925952346416178,-0.152285637890008,-0.14329544633135768,-0.13297911506890847,-0.12190307404208499,-0.11037289743520733,-0.09843134656117225,-0.08602953533158389,-0.07364841958543832,-0.06223832783584353,-0.052265038046540466,-0.043437861403650524,-0.03516626668568703,-0.026671128612348487,-0.01710001202898795,-0.006307868511581289,0.004721857106573312,0.014590730903003415,0.022120069483461312,0.026491845597258402,0.027719299768397484,0.027278664867061323,0.027655285618673045,0.03040633309371909,0.034940487932657374,0.03940469124822707,0.04212636064666389,0.04251992530287828,1
0.03428611347232388,0.01948006094611181,0.003785377288321179,-0.007179623466637166,-0.010327127790481306,-0.006729001344863452,0.0004414460028022288,0.008490425072123987,0.015506963444700445,0.01999959970320723,0.021434674038524747,0.020965558346502936,0.021347669591495897,0.025185805038341575,0.0324639914406177,0.039913140014632774,0.04294517157308787,0.03876715864105486,0.028607275648181208,0.016522915058961904,0.00510044460631455,-0.007655489581690807,-0.02689029820992255,-0.05526765617963057,-0.08765592409455122,-0.11190073894745486,-0.11623272738400073,-0.09773386054659806,-0.06545153892488946,-0.03589064645294585,-0.02372285329218596,-0.03380015899931356,-0.06008196532022973,-0.09173875169744083,-0.12026923276829342,-0.14166734226209488,-0.1541078346290716,-0.1553905549299764,-0.14355011152829422,-0.12100986053132369,-0.09763980660996166,-0.0860461547758954,-0.08966569795575381,-0.09363711284180484,-0.06731025924015346,0.022083895611659944,0.19188266731167897,0.4291107573116212,0.6824561206503498,0.8693706076611518,0.9054021152825792,0.7461319801451626,0.41771030293794176,0.014893242951064874,-0.3370162715311376,-0.5380667179014066,-0.5572634646425376,-0.4391818153611997,-0.2706455992111184,-0.13042778452372006,-0.05467793399297849,-0.0359622088609982,-0.04663510898899182,-0.06243304621953852,-0.07185181924564173,-0.07377290768035609,-0.07118139346236263,-0.06655889682391589,-0.060789054066393525,-0.05419194157626575,-0.04803233460036503,-0.044736544465386135,-0.045979446179491124,-0.05088595194226019,-0.05669111257876634,-0.06101102166191012,-0.06310209004361757,-0.06356101804802575,-0.0640441486750994,-0.06679917304822958,-0.07325115490729524,-0.08304395246713954,-0.09424560624814764,-0.10398494290692743,-0.10940155066643868,-0.10898149449063463,-0.10336417622705824,-0.0945858549856763,-0.08450926369203786,-0.07383456952621614,-0.06219065799412826,-0.04897354420690356,-0.03399735879499735,-0.017635901526155014,-0.0005312330521235857,0.01698440576122982,0.0352111115056743,0.054892290650689735,0.07681024003003312,0.10147232583746435,0.1284977710089019,0.15612143026633926,0.18207679824796127,0.20475423791534703,0.22301840557651717,0.23609234262355605,0.24454495930734985,0.2504879333791036,0.2557857483400796,0.25986950028681255,0.2596178166143195,0.2518695564179276,0.23626379748066226,0.21578445362553747,0.19495042620444067,0.17729835804078387,0.16304669156332602,0.14772536728167224,0.12395590395200827,0.0866540085665327,0.03719701168441772,-0.016967097333033927,-0.06611169278993517,-0.10337460675136684,-0.12839481661308844,-0.14606020273969875,-0.1614631599081411,-0.17594276852069135,-0.18697472678976218,-0.1908895432194893,-0.1860228009912827,-0.174312154208706,-0.16086127649876145,-0.15189186226900334,-0.15161787553593697,-0.15947178712374227,-0.16951075469164179,-0.17319186431830327,-0.1646611072429183,-0.14504667666652032,-0.1219380414344055,-0.1037987968089118,-0.09380570869639816,-0.0878205352795151,-0.07761108406902112,-0.0569251355022585,-0.025963213383233152,0.008601466903460048,0.03737575358728956,0.053419879619895895,0.055837434133162805,0.04956327739117036,0.04209440361401746,0.039333164628594194,0.04250801527346079,0.04804684096063315,0.050576033569489164,0.047009835172081044,0.03889667380639553,0.03091367918366327,0.026731752377703547,0.026389829926039006,1
0.01793818548039634,-0.0027364532545944573,-0.021624529278819946,-0.033503152928757086,-0.03607832223674506,-0.03016357722292166,-0.018738937472632906,-0.00511212392079183,0.008078428384006889,0.01828521112382961,0.02292261496571244,0.021035839799322036,0.01454457755663713,0.007158293873245104,0.0025840567500783583,0.0029871370428724803,0.00734092870321591,0.011531560583661461,0.011322343785437962,0.005508962382993137,-0.003934067610787277,-0.014391476997499547,-0.02460514968991589,-0.034616897675883856,-0.04480542267368851,-0.055041328868733336,-0.0642717166315268,-0.07069106083968485,-0.0725075987570178,-0.06938517868779877,-0.0638349969668231,-0.06097192531689823,-0.06625321016826068,-0.0823554286334279,-0.10675276587470564,-0.13131130449362824,-0.14444726689596282,-0.13569027944037665,-0.10142227289200871,-0.04887550020862422,0.004284585831920811,0.03625259002000335,0.03369689302158034,0.005143945895318799,-0.016368863243254775,0.01353492318069902,0.12893065783506466,0.33378014547693813,0.5903617525399069,0.8229200916157347,0.9416698033337695,0.8804212568618023,0.6305412034597793,0.25299014262431013,-0.14166215466994725,-0.43934329750083756,-0.5716741122548291,-0.5408308421508551,-0.4081059276291841,-0.25557156377477697,-0.14410434358287133,-0.09273837148752924,-0.08716413707337742,-0.1018545246438394,-0.11654078847216442,-0.12139790507019364,-0.11510678757516349,-0.10080398484428706,-0.083271411592874,-0.0679218172105079,-0.05932962799438071,-0.05858427723194586,-0.06256444504253876,-0.06673234217829038,-0.06833275846050188,-0.06725277802893188,-0.06510199949423394,-0.06375129230808407,-0.06433759820172184,-0.06727113272795202,-0.07230552469880536,-0.07836847619231128,-0.0842363580709533,-0.08947983182203736,-0.09400677972746337,-0.09687360031301201,-0.09634409272405058,-0.09109944177530672,-0.08095915871660705,-0.06688708108759563,-0.05102705553690075,-0.036054804104296935,-0.023476892330197403,-0.012380333375797376,-4.4647640331123284e-05,0.015332495275055064,0.03203690314198382,0.046020791033035365,0.055408766469822616,0.06331367866812197,0.0763619386320581,0.10059762372371271,0.1366056476012116,0.1770578492494082,0.2106342192143555,0.2298688175600846,0.2354341271334091,0.23369358472587307,0.23128967703589035,0.23156105431539828,0.23394865121776176,0.23554583745289076,0.2334102041096488,0.22572187826977816,0.2117802261809407,0.19233551772207963,0.16945607038123997,0.1447560740900874,0.11809652697760814,0.08805643899918979,0.05276847230971135,0.011468820731457864,-0.03295774338198816,-0.07370276381910726,-0.10367777223539132,-0.1195945358196647,-0.12349488254395738,-0.12199281889398064,-0.12331961141185827,-0.13275128075768272,-0.14975595329694694,-0.16907383688601332,-0.18391075902765533,-0.18929558498809498,-0.18450497337246882,-0.17299306848999393,-0.16015756747539517,-0.15038568039871053,-0.14442818584773617,-0.1389637649857733,-0.12918321298453359,-0.11241297689158558,-0.09004086231380032,-0.06645315779820606,-0.04595696521909805,-0.03056542189847775,-0.020134148434766283,-0.013354521653273117,-0.008699041552136879,-0.005401148306143879,-0.003319606283896555,-0.0015673004764748463,0.0017773106803925624,0.00810380923964392,0.017061757005198783,0.026855996740444383,0.03529053143263681,0.040835064676987734,0.04312347895397049,0.04285790361190354,0.04135945778489042,0.03964014868526462,1
0.005443303796922216,-0.006342461366642991,-0.020661780737334212,-0.03276609705009232,-0.03974722821229021,-0.04165785964698164,-0.0398519664479959,-0.03489180892708898,-0.02622079144578949,-0.013032993866412294,0.0042273511652438575,0.02260291325295954,0.037271001603672374,0.04368184389565741,0.039618822006168085,0.02628257585057208,0.007789659131988888,-0.010813608583704587,-0.025995443421409883,-0.03709892692101097,-0.04531062013192447,-0.05096568321728795,-0.05234657186065454,-0.04781556402740533,-0.03912001666365185,-0.03221781229780352,-0.03427951888199901,-0.04902035767333021,-0.07393758495720994,-0.10097547098969327,-0.119387081954791,-0.11970290735763207,-0.09841345464186468,-0.061537440808644865,-0.024200560705433416,-0.0042390154541917125,-0.011225470144622284,-0.03819748250716505,-0.06441304056143286,-0.0694216059925595,-0.049316678464589016,-0.021965438860591758,-0.013417445051378386,-0.03311167038390801,-0.058072607819680766,-0.040254832929889496,0.06771004315528435,0.2828918271783526,0.571386501767527,0.8489391538831026,1.0096565580556398,0.9725737469061031,0.7229307789431777,0.32574280060525734,-0.0986441765801973,-0.42661706153031986,-0.5836388117926014,-0.5695372422634801,-0.44537105420392087,-0.292531615382482,-0.17068086446987413,-0.09918572229766137,-0.06693424468415633,-0.05502148940406261,-0.052168355666168356,-0.05554550095916099,-0.06498943164205574,-0.07910889217339832,-0.09449956668220272,-0.10722073916709318,-0.11491383504922727,-0.11758287890089317,-0.11702584793170863,-0.11556421700993653,-0.11455601873913714,-0.11357454176804604,-0.11096085770331252,-0.10582034416153362,-0.09987380868176703,-0.09643801588002104,-0.09683603295467712,-0.09791055750353118,-0.09330621559711216,-0.07872184365912692,-0.057495050871944425,-0.040040656761590174,-0.036214243511235145,-0.047250169148198386,-0.06432088163275682,-0.07528032059374494,-0.07371441548783349,-0.062192994945436945,-0.04741330571011019,-0.03306363754331313,-0.018093118635594714,-0.0007028228948318498,0.017461981308499762,0.0313987952455656,0.03833558014326917,0.044180791965586205,0.062440955963503963,0.10362989426177224,0.16425536667419163,0.22639567406322073,0.2691213448031788,0.28252789372534076,0.27307444690824645,0.2568639464430415,0.2475348462175711,0.2482645133333087,0.25265864730734394,0.2517328026069871,0.24093908660201577,0.2229348402377751,0.20436153490829714,0.1894442736064185,0.17635102631130153,0.1584835639524016,0.12862748036103125,0.08400409332600094,0.029751571164470456,-0.022165203004248235,-0.058878992187745456,-0.07430616942228604,-0.07346509699508566,-0.0695032098867093,-0.0751859288506729,-0.09514496453332272,-0.12391958902263793,-0.1505186555772571,-0.16633068232065257,-0.1704200934142304,-0.1683390050544331,-0.1669800747866287,-0.16985582892043954,-0.17493413125124602,-0.17630616450431977,-0.16919609811262193,-0.15430753632647892,-0.13737765298746418,-0.12486447366895496,-0.1198755469881045,-0.12041519684840671,-0.12035615673489548,-0.112822431085639,-0.09418431079156311,-0.06638787854164577,-0.03590401329252414,-0.009806391513200171,0.007612061857940687,0.015407203348611866,0.015189816550469377,0.010988399222579388,0.009286727205062201,0.017043084858946164,0.0372980438741982,0.0655199842859652,0.09044814000148929,0.09995077077006632,0.0881827068653957,0.059268229927859274,0.025425629774282324,1
0.0006196644282827012,-0.007526395444353477,-0.01757937073435365,-0.027067287096247946,-0.03207800044417325,-0.029784175580403402,-0.020090926950263703,-0.005679547006943448,0.008907387892080999,0.019500168881262638,0.02473336689461281,0.026170052860094425,0.02670932498881997,0.029031922168392836,0.03404556901623168,0.03966481843706767,0.04133127343614257,0.0346028946083687,0.01780104893426702,-0.007034930005817042,-0.0346935062377118,-0.05906439223791849,-0.07659716216510196,-0.08795757966838057,-0.0962612730623275,-0.10380987355674433,-0.11046019283746625,-0.1146935709403476,-0.11532999716236307,-0.11186708105018103,-0.10451717008442565,-0.09525077922530889,-0.08825255938712787,-0.08847648905638436,-0.0990487829436292,-0.1182840117047778,-0.13802809871000488,-0.14648173145675308,-0.13563177578028598,-0.10804504687415598,-0.07727107729751523,-0.05953674849439515,-0.059337393971446994,-0.05873049348909112,-0.02024171956411505,0.09698966356760452,0.315180977424952,0.6167648601907337,0.932934641776906,1.1556271148426744,1.1791491594770411,0.9555986762644207,0.5309411634088353,0.03392178738163014,-0.38083674671123563,-0.6038791188498904,-0.6161670832485068,-0.4840279896890959,-0.31012195429773515,-0.1752421090343147,-0.10823437688119902,-0.09488620622590707,-0.10666028594272609,-0.12273922105641627,-0.1348203586480901,-0.14181018708657048,-0.14440468356331257,-0.14309142078640133,-0.13815583101588685,-0.1298532393802905,-0.11861422630283286,-0.10516419960379055,-0.0907573760467512,-0.07812501264837636,-0.0714865770481065,-0.07409525364367847,-0.08521733348458349,-0.09969156277791244,-0.1107605687691952,-0.11384219971535063,-0.10896536738854938,-0.10055241812012189,-0.09417246393467103,-0.09267520677766408,-0.09495557189632384,-0.09749929249585138,-0.09664594254801673,-0.09068716525598063,-0.08083365770605164,-0.06963159354304972,-0.05858901459439585,-0.04749275351309644,-0.035108118716036925,-0.020200934827842906,-0.002147468952098535,0.019123078465158115,0.043331866381373214,0.06992464512105293,0.09796092930550765,0.12591902218643622,0.15226369695945222,0.17616410471545357,0.1970736092716754,0.214591838334081,0.22921345480624314,0.24224868647357692,0.25470665857555763,0.2662967896194236,0.2755503647803577,0.2808895967276906,0.28129050899225017,0.27635061898991053,0.2663493967940876,0.251834406938342,0.23268789012341132,0.20780755104715765,0.17591373716890193,0.13680514201681004,0.09216628431779032,0.04527383652011779,-0.0003850711904496429,-0.04242066018850295,-0.0795390629968579,-0.11072758257076196,-0.1352831937858191,-0.15337459482062166,-0.16569173059598075,-0.17291355888855864,-0.17609333729361915,-0.17698300169805284,-0.1772726868848417,-0.17786407930983114,-0.1788392094361086,-0.17923930125387827,-0.1773725340529097,-0.17196092413931363,-0.1626277893216604,-0.14983682992511146,-0.135047729104439,-0.12068702772269949,-0.10908559932284866,-0.10063792791372207,-0.09353158207910943,-0.08574470958365871,-0.07645442207664427,-0.06554793998104372,-0.05319487534506421,-0.040156770358653615,-0.02765300257496189,-0.016662677257354763,-0.007452102224650717,0.00025769091696262875,0.007158644523757474,0.014488012316936517,0.023130618879061947,0.03222119541784421,0.0394748703273513,0.043333700428563215,0.04473127997799095,0.04652199196541014,0.05124280651176156,0.059136081623486325,1
-0.019597997734217616,-0.033030286913960476,-0.04585337154214486,-0.0546988897937153,-0.05801299538831299,-0.05627154049415814,-0.05052839238658632,-0.04122008214060887,-0.028913224922317692,-0.015409617667654304,-0.0035107873457788544,0.00420640975575772,0.006767080507061296,0.005455208075419336,0.0030692462980347526,0.0019986509899409047,0.0022170570916634127,0.0010842900234607805,-0.004249836132553924,-0.014284340016778292,-0.026714477316050235,-0.03775209637859092,-0.04447667531954084,-0.04672393473507015,-0.04711650667520392,-0.04945888757596628,-0.055990577237033066,-0.06537935295215673,-0.0735795335548127,-0.07672123380554596,-0.0738201215508646,-0.06752321988906775,-0.0626268425547588,-0.06369785834297065,-0.07258696739634303,-0.08661279978586257,-0.09891443406175279,-0.10142823371092793,-0.08929713505562457,-0.06486646366212198,-0.03911979352391051,-0.02691841275184379,-0.034767659030795234,-0.049169346621171776,-0.036776556051498224,0.04165585996521079,0.21019273871843944,0.45797416528642926,0.7300894226274618,0.9386377698179933,0.9953208054303073,0.8524013265912633,0.5309779697300606,0.11954482993089173,-0.26008283673564236,-0.5045565692272722,-0.5718772251470827,-0.4920874306640347,-0.3417427742352482,-0.19949563441358847,-0.11003534774380644,-0.07620093357738367,-0.0764883212206966,-0.08773853965326282,-0.09700403324450796,-0.10137799010791387,-0.10253269705443872,-0.10211754130808415,-0.10055075834979255,-0.09783181311329608,-0.09422741919270991,-0.09057625295084583,-0.08794231199818547,-0.08664394193099081,-0.08605711260626392,-0.08539875677019404,-0.08459810894661113,-0.08452448462410843,-0.08588729961796368,-0.08813273191134771,-0.08992979171965051,-0.09002529879774052,-0.08761580796795557,-0.08284457654698099,-0.0771188887364099,-0.07257583902306904,-0.0709337055669339,-0.0724701120690301,-0.07539006611240044,-0.07576341434501938,-0.06899463980103232,-0.0530449830188471,-0.030653163504924252,-0.00773233963471719,0.010781547182407692,0.024123090833386988,0.035429301939646496,0.0486551428151337,0.06617312640434826,0.08837241324346684,0.11382814201898574,0.13975800800380503,0.16315021011074599,0.1823919431658385,0.19799168454087845,0.21121054146340879,0.2228969806647142,0.2338163502438008,0.24413550577048773,0.25239044229894164,0.25639050404915226,0.2548822317117257,0.24758628218556725,0.23461835532587894,0.21639625850785923,0.19286087653564693,0.16319269370216832,0.1274406795978886,0.08744549375326173,0.045855921272666245,0.005351698396848223,-0.03142717268416484,-0.0626558639192081,-0.08829951646448786,-0.10969033267451615,-0.12832459825783515,-0.14464114053321497,-0.15729123215236712,-0.1641224220115955,-0.16404179447068057,-0.158235601923709,-0.150243038139389,-0.1444298603738984,-0.14337258670812628,-0.14607202321625606,-0.1489106122107492,-0.14844884808705136,-0.14331456785976224,-0.13421594252493113,-0.12287575786894339,-0.11098760377737651,-0.09957780675810274,-0.08873195578912337,-0.07783287213123286,-0.0664200323888091,-0.055210768404185255,-0.045844911157270754,-0.03894249427518623,-0.032520888001643086,-0.02309226216559345,-0.008925737668916228,0.008105930556317205,0.023908860041271875,0.03475093121021183,0.03932487241808989,0.03959823006645635,0.03912119443822572,0.04003492013074399,0.042472385599655806,0.04603631865801419,0.050412637402318786,0.05511504840849069,1
0.020074415753454273,0.02063780818263385,0.01394188001565503,0.0009092412156052817,-0.013737000771157033,-0.024092493413583077,-0.02595882129189364,-0.01838700404396435,-0.004040561215038568,0.011973764327028189,0.02484577539643265,0.03206753669231166,0.03326245105042399,0.029155348051577643,0.020973066892565995,0.010238618958707046,-0.0013425418863689893,-0.012289716487277018,-0.021878844699107433,-0.030100574132554063,-0.03727943010636492,-0.043804251881374594,-0.050241995438651356,-0.05755238320591344,-0.06618184661455925,-0.07500028551753371,-0.08209543445494875,-0.08633254408555369,-0.08798865345750692,-0.08859345923857674,-0.09018265563383711,-0.09427392039183695,-0.10136880816888384,-0.1110100971196446,-0.12194235719204553,-0.13238611566956937,-0.1400962188392763,-0.14197210394108206,-0.13481305374748012,-0.11841776171115416,-0.09864270187851729,-0.08609489772827476,-0.08815967926410818,-0.09793995087149075,-0.0885960434713547,-0.01938459130139959,0.14689146485958027,0.4203819974018365,0.763074981384605,1.0842495865339177,1.2664855172525946,1.2167157419506762,0.9158937610503478,0.4390940934214595,-0.06970454686323992,-0.4604111661132026,-0.6432643921671736,-0.620748009653443,-0.47047563377993107,-0.29443898343899805,-0.16680799149008504,-0.10971286032712536,-0.10456508389621363,-0.12062311657004633,-0.13620147192497528,-0.1435655756484869,-0.1439463386310678,-0.1408087276041605,-0.13611753314565,-0.13068467009280757,-0.12541878266420467,-0.12120687679139422,-0.11813036603329091,-0.11500211846329779,-0.11016294239148725,-0.10308930190911195,-0.09518108485093905,-0.08918540775899149,-0.08761014113539317,-0.09090965281476951,-0.09688571842115057,-0.1022234939454393,-0.10495545993276234,-0.10538402617751395,-0.10455752945541988,-0.10251603012484674,-0.09855532885056958,-0.09253520456686844,-0.0852718423102051,-0.07771078640235339,-0.06991863254439874,-0.0609195166351882,-0.049358892604262516,-0.03423275758332989,-0.01548815683923931,0.005625597543490204,0.02738088925649704,0.04875140131096891,0.06948763838311144,0.09030456195885413,0.11294303791702054,0.1383692047112796,0.16541332831213235,0.19191127763934743,0.2159459842135971,0.23583198386214746,0.2505885575566572,0.26116038612328857,0.27005408553834787,0.2787269952741953,0.28563776053515283,0.28731975541425686,0.28123518614678256,0.2677733663845633,0.24971886430605836,0.22961702879298784,0.20745642889889915,0.18060398161139063,0.1460283063415651,0.10301717775891465,0.05418044086520733,0.004207778573711685,-0.04252257947968787,-0.08347825591775979,-0.1176287671596743,-0.1443585270735773,-0.16316280940445713,-0.174566773843419,-0.18059179973086137,-0.1834319652277897,-0.18417127175263798,-0.18303442223740274,-0.18017938154271967,-0.1758316736244962,-0.16995048293891385,-0.1625564343775293,-0.15449149615974647,-0.14724880617218378,-0.14173895974188383,-0.13701360566117732,-0.13047858070594878,-0.11995899816067605,-0.10550965794678463,-0.08947743929880983,-0.07518420050372396,-0.06489077982239282,-0.05842862460885709,-0.053352046206660404,-0.0461928638647533,-0.034391714088385296,-0.01787378965080411,0.0008599328918288927,0.018126112498934612,0.0309626579440927,0.0384304002769819,0.041711952328137875,0.04296032967758581,0.043809643283125976,0.04476286245533162,0.045502916443520613,0.0454712543471093,0.04462276204650385,1
0.009736299051641755,-0.0006374341581388005,-0.011984616583386383,-0.02166734638315537,-0.02701539183232595,-0.025641796116162834,-0.016620147624886082,-0.002108096752015189,0.013470033147339229,0.02626755869059201,0.034819460086272375,0.04003289054091938,0.04375697592521413,0.04653564439532265,0.04657112477709317,0.041189185790347416,0.029034030768478387,0.01083439246734516,-0.010882572569087381,-0.03247444316161246,-0.05064154221584874,-0.06395573148120386,-0.07308933083729408,-0.07981147117095648,-0.08579182709008262,-0.09165055392584254,-0.09657827079045664,-0.09893592606473314,-0.09746336248301331,-0.09239165509274336,-0.08573937609835702,-0.08055719119839048,-0.07965594723024058,-0.08422981574241442,-0.0927888623149215,-0.10112072551475697,-0.10373101718803138,-0.09648818237977476,-0.07942242801560444,-0.0582079152376364,-0.04249817668762888,-0.039565588987275906,-0.04556393443781651,-0.04146424301452155,0.0018703166709388222,0.11206219240762823,0.3014026433302405,0.5529671644662297,0.811495180107649,0.9905812934577469,1.0036369351825314,0.8079382012166784,0.43633886341872646,-0.006607371605132976,-0.38752831155411266,-0.6043710201338355,-0.6299891042563556,-0.5144235455267712,-0.34711599926430275,-0.20568503058256032,-0.12372310794135336,-0.09318627284046709,-0.08947993122700504,-0.09369927281714559,-0.09867520623943016,-0.10385946108682007,-0.108953241660522,-0.11153506378918611,-0.10885790526458722,-0.10067323685657806,-0.08981678455433446,-0.0803055673633586,-0.07500493837671492,-0.0744485758881223,-0.07693406095565328,-0.07938076770670643,-0.07875171495266829,-0.07344800827001234,-0.0640368869029332,-0.05359178788662407,-0.04676317438997252,-0.04701926054560726,-0.05456083497796191,-0.06655915257799339,-0.07851088240934763,-0.08571705783012407,-0.08503159052941688,-0.07652246134925089,-0.0631888206812809,-0.04834015874699043,-0.033681919401643244,-0.019810207793255596,-0.0071242842938921015,0.004469985034779172,0.015919809106331964,0.02842854514965628,0.04313416086355961,0.06102079234441736,0.08182180439294295,0.10365275583834178,0.1248288682329564,0.14538191671058676,0.16631008468787106,0.18792626788653538,0.2091015876590796,0.22776266247991267,0.2419144616435408,0.2504111099768006,0.25336749066836445,0.25210880744254394,0.24849811033723584,0.24369579228079105,0.23718004540814785,0.22722257176963856,0.21206682988027728,0.19072931090537384,0.16386018281447043,0.13371338699163166,0.10208602406889189,0.06886192791490092,0.03335029559235889,-0.004046258991139411,-0.04170658595930453,-0.07704070974042032,-0.10706500976001293,-0.13000650261974842,-0.1465640755720741,-0.15935458091243765,-0.17112743508350026,-0.1830950389369749,-0.19436675385483293,-0.20272992639164414,-0.20591846925327204,-0.20263081698923577,-0.19345455477311946,-0.1808394814134616,-0.16722534724542365,-0.1535498520638673,-0.13993398695619205,-0.12673416992521463,-0.11458617661472724,-0.10386247901910614,-0.09416043048942214,-0.08483960850675275,-0.07616135240822468,-0.06924251553001366,-0.06494200357457833,-0.06261063509146877,-0.059705278463617985,-0.053266263481253254,-0.04168169325266864,-0.025017782284542944,-0.004679020962328983,0.016834899432744427,0.036135819053127155,0.04952387348647901,0.054385204112681565,0.050925012657145254,0.04307796809315418,0.037238023744562046,0.03883088131900215,0.04922363187730078,1
-0.03312406923330632,-0.029812978196594196,-0.01770819359696081,-0.0007806852049013664,0.01749916946749739,0.03510583703363526,0.05032666063179668,0.060179395993970736,0.061032215768296226,0.05161325916252551,0.03538242341256794,0.019605733463041383,0.01100407072394851,0.01106068539723737,0.014876174780510386,0.014467247754868549,0.004281822145494397,-0.01477532284146001,-0.03580341365794245,-0.05028388776240588,-0.05315491605568175,-0.04574719539274627,-0.035021466548650876,-0.029274556671124195,-0.03279014771396924,-0.04345711166409966,-0.05505067757090182,-0.06147546069769878,-0.0597945922037227,-0.05109077155812046,-0.03949971800223343,-0.03023166463869444,-0.027530838613068688,-0.03332249894309304,-0.04658024404843754,-0.06291375265862252,-0.07499846549483474,-0.07557180598870732,-0.06206174103728053,-0.038881489297328854,-0.015425017186151658,-0.0007722591279793276,0.002825136433956788,0.0036547517139437213,0.018920172027462424,0.07062041910228899,0.17984710645543964,0.3545615414503395,0.5718320449859317,0.7691395756938236,0.8603361679084152,0.7755737770917839,0.5048079278643282,0.11558916993259297,-0.2717872980970652,-0.5405204890492765,-0.631635147396168,-0.5640491172843332,-0.4114984749411264,-0.2556913253699147,-0.14740608856498083,-0.0960248234663475,-0.08409483418323291,-0.08832890753444425,-0.09233425073620856,-0.08958912194978279,-0.0814648849824778,-0.07283537553538819,-0.0670255868645096,-0.06339297400531971,-0.05937059408110176,-0.054143510321453765,-0.049390894024755765,-0.047093813790298866,-0.047714778093489466,-0.05006789352908445,-0.052219474169955565,-0.052803295201979406,-0.05240009508334825,-0.05358667688977812,-0.058562884126190026,-0.06682307873528286,-0.07540321992492519,-0.08065540579671138,-0.08031049084038792,-0.07489599375088675,-0.06701783374903397,-0.05940551331788135,-0.05363381827207113,-0.04940324719542293,-0.04453766853213205,-0.036653610848995766,-0.02507572463146872,-0.010602920444356224,0.006049985784207805,0.024684058312638382,0.04518408907487553,0.0676411782815862,0.09210149928015923,0.11708903924119753,0.1390972388306358,0.15462905622683923,0.16270983316970633,0.16574936147038621,0.16840404856200503,0.17480404959988288,0.186212688197002,0.2010510972472905,0.2161536758218816,0.22787933637663255,0.23351617888925635,0.23231832511150988,0.22538915384979977,0.2152440621595304,0.20466554205807277,0.19443523112767866,0.18192617890718793,0.1623444175925734,0.13194139590663884,0.09080466475289324,0.04310526222174359,-0.005180631933919454,-0.04884147049376525,-0.0847095969120519,-0.11233885380703691,-0.13407148464676766,-0.15316752912982567,-0.17136902461153403,-0.18844564820372975,-0.20292391790763348,-0.21258876626849554,-0.21572040023994887,-0.21287889248113495,-0.20653288263487965,-0.19859920747930798,-0.1892836169220036,-0.1779639922585542,-0.16428043566143077,-0.1487565981772288,-0.13288588591601388,-0.11824607976034823,-0.10523147139109908,-0.09280138075337563,-0.07939410475018797,-0.06416035105430337,-0.04765946774829401,-0.03160504003152685,-0.01802339826575014,-0.007940054710613858,-0.00023866438147856703,0.007685813751576134,0.01793204457250425,0.03082873943599181,0.0449339073570512,0.05777847680351559,0.06690652825818948,0.0706102959251871,0.06809145299358893,0.05973312273561085,0.04805325415325545,0.038153324783537654,0.0360275585166403,1
-0.012759088761709234,-0.01927181402928056,-0.025150922112613487,-0.029067352568325086,-0.030371439360420846,-0.028905661810816347,-0.024710475271769734,-0.018233389932950567,-0.01073471469099085,-0.004184810121719355,-0.00019502895452619623,0.001523679356615952,0.003005262034727797,0.005857645140212525,0.010278280978987498,0.015733299790711894,0.021134401392292564,0.024690449095494442,0.0238946628036259,0.016111600709656497,0.0007532940548825558,-0.019137805407542785,-0.0382719942635761,-0.051817290467018697,-0.05747065103124041,-0.056451376720893315,-0.053038320502174885,-0.05264495111737219,-0.05907243222088779,-0.07216055457312132,-0.0872569242693475,-0.09735732685672133,-0.09759692508804299,-0.08940865168352585,-0.08048723047839036,-0.07967152816755062,-0.08992167357124209,-0.10490173022008148,-0.11270397112316655,-0.10376281798365511,-0.07735615423510057,-0.04290052677033508,-0.013116078747568559,0.008689058290967808,0.03648536465171115,0.09637640967680736,0.21240824675829476,0.3916322704840062,0.6127147880672785,0.8221919654517413,0.9449743171369183,0.9117797700346156,0.6948381368859328,0.33269073464647003,-0.07474939789028424,-0.405452686553519,-0.5712141284902145,-0.5576724025730768,-0.42351277743209376,-0.2606783383849842,-0.14288083553774433,-0.09511813026095696,-0.09872848139590089,-0.11966850048821646,-0.13375677304110664,-0.13356579270383742,-0.12270478474142205,-0.10853168017195158,-0.0972272512090333,-0.09174631645560467,-0.09181994607099,-0.09465221775451946,-0.09650895533907138,-0.095016659301798,-0.0906768647329302,-0.08624544387802656,-0.0843573312851491,-0.08560375097074055,-0.08842495568179448,-0.09043130032532312,-0.09016452866140501,-0.08816690187356332,-0.08647615043875526,-0.08667665652579368,-0.088356735512235,-0.08959706527294012,-0.08851732093659138,-0.08416421189510344,-0.07675449812044319,-0.06749382039178216,-0.057213744289665275,-0.04535131584849781,-0.031551942232049296,-0.01735687583091925,-0.004983920953864383,0.004976102204579603,0.014498910949482108,0.02718197694060377,0.045828743462059764,0.07051324589882527,0.09882464765667727,0.127426192153213,0.15363995659512172,0.17626531112250485,0.19511829837488207,0.2103373242944395,0.2220758456817819,0.23020229957563215,0.2346260182386958,0.23610319649719175,0.23622648998476908,0.2363570780765549,0.23609144188895778,0.23277858255316777,0.22330054419336945,0.20636806540825828,0.18325438232426125,0.15670028050471307,0.12859852609845387,0.0985782728286956,0.06496972567244405,0.027086181482825954,-0.01311561399747807,-0.05133049867528296,-0.0830853704720964,-0.10643109303809237,-0.12295012257726592,-0.1361832324418723,-0.14876103041829736,-0.16029794156238125,-0.168253195830393,-0.17098299895043523,-0.16918162706246415,-0.1648434537804094,-0.1599244380612303,-0.15553580392599786,-0.15142706459564087,-0.14609063764065067,-0.1378512697082384,-0.1262170316044838,-0.11222550543202786,-0.09774119918370551,-0.08434607593612889,-0.07256339783922232,-0.06224232794747757,-0.05330318163400783,-0.045726119052471606,-0.03945116353602614,-0.034332703319869026,-0.029771326538767795,-0.024677838106389207,-0.01776946824394463,-0.008124477654191446,0.004050016604234898,0.017341636953701733,0.029693533369230207,0.039300099753240836,0.04520466824057059,0.04688656502605247,0.04444888420457367,0.039584837844581375,0.03502371159884835,1
-0.020193466317488033,-0.031061926122982628,-0.03991482149243446,-0.044766215458238896,-0.044982640974065354,-0.041116093614537164,-0.03485834220451201,-0.02875957863818787,-0.02473121402120063,-0.02289739616006583,-0.02200409037815386,-0.020195340123297233,-0.0158433960914367,-0.009077760373382517,-0.0024221340669901446,0.0009305723745376389,-0.0006594575273651381,-0.006896942891836578,-0.01673614867117866,-0.02921181520411249,-0.04315464148511971,-0.05669696121994627,-0.06753943014083448,-0.07421215291728701,-0.07710491136763316,-0.0779361742375797,-0.07861024667463053,-0.08093700100172478,-0.08633390394874192,-0.09428899730586648,-0.10149865606408266,-0.10401045218998509,-0.1007706563020515,-0.0948896006692265,-0.0913211650366872,-0.09295293798204286,-0.09788378202361739,-0.09968471252306885,-0.09140978141779618,-0.0717634327244457,-0.048134226882593216,-0.03094232151200147,-0.021512004058275733,-0.00426852633196992,0.05051207364834865,0.176052267327779,0.39170077040388657,0.6812517154004556,0.9796867093317214,1.183938293012709,1.1919734033407707,0.9560762926428444,0.5202063872452483,0.012341737675346742,-0.4110289884831526,-0.6379372083575523,-0.6487868011953147,-0.512149177503871,-0.33427784880267153,-0.19815270002070956,-0.13214907226359496,-0.12004280429316908,-0.13119322207369719,-0.14353027093035922,-0.14920649514482187,-0.1496562857700082,-0.14886566265109194,-0.14873609624352938,-0.1483066227814505,-0.14610072732917811,-0.14195155223735598,-0.13613488745800603,-0.12815942059803848,-0.1177217960590462,-0.1060112795118402,-0.09533650882470868,-0.08807838003115094,-0.08588129442413607,-0.08854897997027825,-0.09317524865292261,-0.09532845081601704,-0.09217387014225595,-0.08464439607407798,-0.07622824929606076,-0.06968136093057414,-0.06518140656809404,-0.06093676897248993,-0.05464750482650116,-0.04501501336514732,-0.03278350559160357,-0.0201548272575646,-0.009460487961522619,-0.002431055620930142,0.0010668591899694047,0.0043196917374037705,0.012416871813332144,0.02900054774872463,0.05410008782956879,0.08411926579703269,0.11400913224217252,0.14060687702364932,0.16411503588810716,0.18622897115897402,0.2072834661382221,0.22545754504211377,0.23840418618538206,0.2454069597977796,0.24792523796872912,0.248074960763276,0.2469121157294262,0.2440111557793665,0.2380488832263029,0.22789213034700276,0.21358340861611053,0.196405955018352,0.1778269092980652,0.15785860617082628,0.13425314409130673,0.10440945127136686,0.06841703426828688,0.028868934248815453,-0.011527040401513373,-0.05054305555566085,-0.08610158564520848,-0.11666603846340591,-0.1413525768773125,-0.1597265645256643,-0.17206371865051337,-0.17955938676973252,-0.18386375114516418,-0.186098168292246,-0.18637444542331746,-0.1846339289068046,-0.18121265453979601,-0.17614090721224865,-0.16904944319496795,-0.1598089526132158,-0.14829628182930576,-0.134352663992318,-0.11876002756915052,-0.10338034568239163,-0.09004188482683004,-0.07944058307687007,-0.07083819896487543,-0.06277471572613941,-0.05419071024196665,-0.04506133494480558,-0.03604061523214447,-0.027554056768244847,-0.019296183412020027,-0.010486710434229305,-0.0005622608421408624,0.010237605924114847,0.020659875669330512,0.029283573083701154,0.03604402063844404,0.0420024561429532,0.047768449632932086,0.053223749285973884,0.05786302318621821,0.06055142306777764,0.05986974089180226,1
0.00375409142172806,-0.004586425979326984,-0.013354880872784212,-0.022163500708245545,-0.029513195431877505,-0.032709130067054316,-0.02928215512643653,-0.019220089839169344,-0.0059962726176371875,0.005280172435436249,0.01114496235281063,0.011568274563044276,0.009376295541595175,0.008006685254060432,0.00901199769090225,0.011018880877541003,0.010777024274018854,0.0053359291227602175,-0.006319071613815467,-0.022680544129141885,-0.04016496526539978,-0.05506275080286797,-0.06561293313537198,-0.07237034330007867,-0.07732875585204747,-0.08236318534918381,-0.08797268311966314,-0.0936756036587015,-0.09871917649431812,-0.10202750172533309,-0.10268903605892094,-0.10116760091900173,-0.099779810358283,-0.10156378130567534,-0.1084847865438231,-0.11997624566979216,-0.13164750203809258,-0.13601615028068034,-0.12711933717912927,-0.10590910467832675,-0.08191901475492633,-0.06807783657126651,-0.06876376629080881,-0.06948638094046826,-0.037314235856186914,0.06822965552995605,0.2771113475172703,0.5853678792475981,0.9354934468377682,1.2198949102942653,1.3187866806885404,1.1585846552072119,0.7583766251166272,0.23341726570100638,-0.2531864368545779,-0.5656886157535961,-0.6539640314964806,-0.5630296051922807,-0.3934845676792039,-0.24121284112956742,-0.15433412815690867,-0.12940404377425246,-0.13770844129414186,-0.15315975682072092,-0.1632350883020467,-0.16627580707837072,-0.1651759997911552,-0.16250446050530526,-0.1589026498176866,-0.1538618791591123,-0.14693822707976179,-0.13890522805723732,-0.1317821360399217,-0.12745784980641545,-0.12672390019356483,-0.12922853396439588,-0.13357375341419478,-0.1375038570288616,-0.1382387172076766,-0.13324817279322146,-0.12213607783375012,-0.10806792471240875,-0.09614964626157303,-0.0898659106624918,-0.08874469391766214,-0.08863034622921973,-0.08445294622217453,-0.0735545206449511,-0.05698026653955112,-0.03854894537191061,-0.022465018520201847,-0.010324548884294887,3.030774691230656e-05,0.012176295257545242,0.027541364783548974,0.044463469421448444,0.0607107177964802,0.07634744569522767,0.09335726489256285,0.11295361245112191,0.1345506448321993,0.15663234103473633,0.17749427548640226,0.1960692465443872,0.2127430390044366,0.22846778126223657,0.24256876284443651,0.2522587162217894,0.25505817308412293,0.25138588630726627,0.24437505228629583,0.23744118253836435,0.2317444682588899,0.22532388333537062,0.21497187514555965,0.198850369753488,0.17702538896427356,0.15028837582170784,0.1189725822437997,0.08328125245321921,0.04463282838227431,0.005534379448785813,-0.03175263686482314,-0.06586595220672842,-0.09635530618149593,-0.12334917079583259,-0.14654391633473418,-0.16454548550640394,-0.17592321082746307,-0.18061528831735613,-0.17998380576685508,-0.17617065857297437,-0.17135401734617345,-0.16681320564170904,-0.16238560575644634,-0.15692983027530696,-0.149611783049099,-0.140975407926712,-0.13247886633606773,-0.124680203553148,-0.11633474274232732,-0.10557596270179401,-0.0918813582077381,-0.07714615115506514,-0.06448828072305055,-0.05555412534634857,-0.04934093107859939,-0.0431767452599052,-0.03434462093137365,-0.021884611841739624,-0.007455694865628085,0.00620167422879311,0.017664172634507116,0.027312641441287727,0.03570622913107236,0.0421392388295662,0.045164054496853,0.04414417842317404,0.03993471433049045,0.034498813770291736,0.030045051146444453,0.02798217503501995,1
-0.003014778665810524,-0.008659016038234057,-0.014507531576875694,-0.020392971009250013,-0.02541952767666451,-0.027861507859959056,-0.026624217751756236,-0.021871950353393177,-0.014916095355408597,-0.007734402366937345,-0.0009760147408026387,0.0074732285605413834,0.020197359401221235,0.036387217424222726,0.050622540543682676,0.055509426704350315,0.046529242964413,0.02565906905170292,0.0005025749961811423,-0.02081697021710915,-0.03457220994753386,-0.04230585193852635,-0.04776807558229004,-0.05289258789299707,-0.05678366602442916,-0.05817540143627872,-0.057425547920321875,-0.056313752869359496,-0.05732965437666302,-0.06282764679546575,-0.07336792309700375,-0.0862481193154067,-0.09649450990386362,-0.10111743593037639,-0.10283619102700975,-0.10775316518912696,-0.11809956652579226,-0.12735962695916786,-0.12267913533164865,-0.09395989126093801,-0.04429031762306308,0.008301930358032377,0.04404665022360319,0.060036688647823536,0.07723039166898067,0.13057970065424088,0.24917595499700043,0.4355686171562407,0.6533761311341021,0.8319561081311111,0.8908736983502673,0.7760419486029755,0.4911906699040907,0.10695421201317115,-0.26241513936583555,-0.5079005444791613,-0.5755132200048447,-0.48761275928943637,-0.3226887707466537,-0.16800211197316398,-0.07661467199224045,-0.053422231665376574,-0.07112361581194451,-0.09730492339308586,-0.11256243049382658,-0.11342396478697826,-0.10588812504229009,-0.09732081406260173,-0.09164918621315442,-0.08923235866646881,-0.08905917788231475,-0.09013753664092586,-0.09168115332032613,-0.0930537711079412,-0.09383495006103328,-0.09396704314977808,-0.09347506644900651,-0.09216075064049385,-0.09007439997567467,-0.0880036559881768,-0.08728879990282729,-0.08883300758113036,-0.09168267620926,-0.09330540957765002,-0.09176251359387591,-0.08682458314384672,-0.07936501992105616,-0.07056698534366479,-0.06133906224339921,-0.052083474832969205,-0.04301672975013046,-0.034423498801900855,-0.026096841712140998,-0.016561981573220735,-0.0037658027053209496,0.013222776524338363,0.033698563346402394,0.05612362597043316,0.07903410488353302,0.10160541967792058,0.12369425208705354,0.14520784305722995,0.16582181376541322,0.18557052864961768,0.20465363972426814,0.22264894178082112,0.2387573311699421,0.2519651322607437,0.26073640325557795,0.2637857883683606,0.26103648712139166,0.2532213936884395,0.24121016797873746,0.2261187912907666,0.20907642089680983,0.19001608492537647,0.1675145231273427,0.1404430121966372,0.10876239799035016,0.07283954582033475,0.033634492313006296,-0.006628541557355344,-0.04526157374360976,-0.08015335951600579,-0.10981084017975314,-0.1334172650856577,-0.15085810895525925,-0.16259643445416042,-0.16982143443729533,-0.17400105942909666,-0.17598535210860392,-0.17589238689156816,-0.17359509204336313,-0.16913421203942414,-0.16288023638817475,-0.15526774186736975,-0.14637347633947614,-0.13619345833718624,-0.12522813650340017,-0.11423921428139533,-0.10369290868135092,-0.09383482144771287,-0.08506626410933801,-0.0777901752125865,-0.07175517992515418,-0.06601551113421812,-0.05945942214912456,-0.050818257359030686,-0.038984856451095194,-0.02437521068586715,-0.009545091152025925,0.002377989869449211,0.010361324604124623,0.016289812230207056,0.022694575880234897,0.030472469671802633,0.03911427651416051,0.04768077498842267,0.05473239868629486,0.058398897977912534,0.05794474453607064,0.05510995354223727,1
-0.005571193517947975,-0.010498586495177013,-0.017298015355006628,-0.02456260260377894,-0.0298490164554108,-0.03128905839326391,-0.028014720196572026,-0.020009196677222712,-0.008522605259867356,0.00390421786513115,0.014384125223288885,0.021165334930105112,0.024664436849094456,0.026693477697615032,0.028047036450618026,0.026742638744817915,0.01914825527899914,0.003461109748195252,-0.01802377973830145,-0.040002367940378696,-0.05707714987701738,-0.06632906088678399,-0.06844927286137244,-0.0669055558751527,-0.06543253449850595,-0.06603061166203947,-0.06913559522075909,-0.07442132618944836,-0.08106287100755302,-0.08820160834347333,-0.09540422996976586,-0.10244542700701298,-0.10883469909742101,-0.11396253009078507,-0.11794856735980937,-0.12161999221394439,-0.12484972018233984,-0.1257709224909868,-0.12243022647668166,-0.11493757949224641,-0.10677379927953679,-0.10397414348374545,-0.10970967410966354,-0.11640911802551848,-0.10165819045172962,-0.030903223780482214,0.13232697257271797,0.4063334722237199,0.7644134706324153,1.1196389447991308,1.343930865503511,1.3231862575101734,1.0213823648251223,0.5133419170521036,-0.040852460853763525,-0.47015846817468293,-0.6718126443864962,-0.6490252433528173,-0.489837194232544,-0.3064607208636924,-0.17608314151316024,-0.11834351811972826,-0.11254768436573251,-0.12855447457694377,-0.14607690526925277,-0.1572364068103914,-0.16122378301225906,-0.15934196963562564,-0.15295687147243425,-0.14353469633068514,-0.13296832493983238,-0.12344329570560157,-0.116936527764479,-0.11436320569252845,-0.11513983561580707,-0.11768566861493501,-0.12023809117537664,-0.12163813722237332,-0.12207376592516023,-0.12278130458686669,-0.12417125916622737,-0.12447480607803083,-0.12076377781966663,-0.11151387574141258,-0.09850192998658572,-0.08576757963115275,-0.07634633441381772,-0.07036389972464302,-0.06561252664227166,-0.05912468217400078,-0.04898804175042007,-0.035615585066830394,-0.021039286825533698,-0.006764515371936397,0.007249044733297721,0.02187964093509607,0.037775266375726896,0.05480227883480773,0.07267667623628778,0.09235883862157974,0.11611918110875331,0.14515549508404593,0.17735537596241313,0.2084019495362246,0.23441718922893193,0.2531782913432651,0.2644347225304702,0.26963369720407127,0.2707661926670221,0.26928730397084716,0.26556923253197123,0.25911413612884754,0.249668454691954,0.23773108384515804,0.2237443774427896,0.2075693034887124,0.18804904779126538,0.16230726156223024,0.12749603281636945,0.08415963218996153,0.03690407638677368,-0.007836413657879092,-0.0449759411064823,-0.07339480396940969,-0.09589541830146794,-0.116449712814201,-0.13739578322445836,-0.15835599346712553,-0.17683989371574788,-0.1900462165115519,-0.19646688629686893,-0.196134578090548,-0.19032225807492037,-0.18107592663765332,-0.1700846620024624,-0.15791947017245422,-0.14484836514113109,-0.1319102335870091,-0.12061922109941087,-0.11201403171877318,-0.10570883259926103,-0.09936134249377483,-0.08986352628845287,-0.0757685265111843,-0.0587734721200037,-0.04293716465669604,-0.031739899931784644,-0.025207149171310072,-0.020222569289918623,-0.013619575841480637,-0.004567540439831676,0.00529600212150402,0.013265584279141717,0.017605904920265796,0.01885526478136215,0.019264418256773143,0.021170595578356693,0.025506694904915538,0.03134223136469441,0.03698577358420489,0.04090394135851043,0.04169794608048712,1
0.020483595023557535,0.012913608364932976,0.0009775211393070397,-0.012503310821929285,-0.02338979007141774,-0.027833470303991668,-0.023909425736194367,-0.012728063448807374,0.0015845800578092504,0.0138564865713911,0.020797523850639495,0.0224818326885922,0.021568851999537408,0.021020729926266052,0.022056831966811435,0.02381824412215402,0.02408594714958722,0.020116381669798664,0.009799528339016624,-0.007169618994737934,-0.028981702444361757,-0.05208991364455687,-0.07177592748690476,-0.08357978157111308,-0.08570034997760252,-0.0803924547713871,-0.0726664979705766,-0.0670602101368777,-0.06495821129891649,-0.06458681087794764,-0.0634000608738726,-0.060497272133805,-0.057463954125107325,-0.05764602989816341,-0.06404380461067088,-0.07668609014527786,-0.09100748787818261,-0.09796556853098963,-0.08723731194532945,-0.054208955363763016,-0.0066682756301185975,0.03601421979075832,0.05470887362195387,0.04717218213057131,0.03577206638899309,0.05804416392008714,0.14618969966682746,0.3078151650592611,0.5153316734454516,0.7078560533018312,0.809086419272511,0.7580816294328822,0.5404284953262983,0.204175709220162,-0.1520433254003947,-0.4194728340436892,-0.5291863130851754,-0.4820247587389307,-0.34061163812092843,-0.1895973266566326,-0.08991134218404861,-0.05562269601840731,-0.06402261820042587,-0.08377559374361193,-0.09616756722548235,-0.09827842547268333,-0.09503444087382568,-0.09126342313159873,-0.08877654114645353,-0.0873111678206283,-0.0862223144020004,-0.08542658602649716,-0.08561456764075355,-0.0876349985993046,-0.0911101533883152,-0.09399348821365221,-0.09420935835164179,-0.09130110918239122,-0.0865668057023413,-0.0822708444066788,-0.08016142237957785,-0.08023738460830615,-0.08128993011707461,-0.0825416553713843,-0.08388572859946022,-0.08466645675541203,-0.08356173768615403,-0.07970430116237352,-0.07331547395281031,-0.06547024595966551,-0.057324031435093216,-0.04934089396942085,-0.040923544822150916,-0.030516766072115717,-0.016473371705648568,0.0018386311722110252,0.02384760878075263,0.04824978645051638,0.07360005793997668,0.09906126843233812,0.1243635565215935,0.14893802017787994,0.17173084791235727,0.1918801224702704,0.20921812513779067,0.22395077252479179,0.23618959602173534,0.24605949719124742,0.2535543837160409,0.2580929665103008,0.25880741364014237,0.2551618721034621,0.24707582820970958,0.23476669645434076,0.2185897369384036,0.19864452655407208,0.17394946090749194,0.14243681361817132,0.10338633621154601,0.059822729610201575,0.01719230100709341,-0.020156751557735386,-0.051105973526390874,-0.07726525530101679,-0.10083067817097381,-0.1226961304503559,-0.14194756809321862,-0.156927697084405,-0.16672127359496514,-0.17165190243173778,-0.17282301104276412,-0.17129482279132882,-0.1676223781361763,-0.16213241912900367,-0.15527862266551556,-0.1477069559726959,-0.14029545903162885,-0.13361019719975797,-0.12701220119891393,-0.11909478808762976,-0.10903552795568633,-0.09712835674045246,-0.08426808010620165,-0.07102776710846002,-0.057452873205067645,-0.04388856776925297,-0.03129577658493986,-0.020627181665327062,-0.01242821056523626,-0.006539171732393871,-0.0018253294019628247,0.0029782944836098287,0.007934836818748087,0.012097948567667507,0.014925554373495502,0.016839269342558656,0.018713808748947788,0.021240089092175927,0.024482491771927604,0.028036905716953997,0.03152595827675607,0.034534746975182065,1
0.007246253678999525,-0.004515941909791777,-0.015574446825240878,-0.023535796681118586,-0.02652260566999948,-0.023833056180448356,-0.01607713042696989,-0.005307201105228524,0.005517357515582584,0.013990291894861007,0.0192928884493672,0.022040825259943733,0.02345373590233852,0.02426360829659642,0.024094636785386973,0.021814054472770943,0.016040412940580635,0.005585616259077991,-0.009370101188040403,-0.026262130087505622,-0.04127434568213429,-0.05201833134874094,-0.05889459949791339,-0.06396481720176302,-0.06897762302864405,-0.07442403449837603,-0.07979970473008587,-0.08443228044408763,-0.08822890629720144,-0.09155549394250717,-0.09451441701078134,-0.09683768625928052,-0.09882315437366157,-0.10211813523976825,-0.10836384590003828,-0.11648684631760568,-0.12203296125483236,-0.11951263393974051,-0.1063100979565342,-0.08665253370565185,-0.07177362836657335,-0.07192950577403326,-0.08435162666924081,-0.08707637029572288,-0.04266831309776243,0.08888185737905904,0.3286294591426167,0.6540694045726544,0.9867378024145476,1.2090089690837473,1.2120633589627101,0.9545796798812286,0.49690492089249894,-0.017258623262932916,-0.42663220728568935,-0.6272580131712338,-0.6130385083391516,-0.46234830082449646,-0.2839143452603662,-0.1577827407579689,-0.10711310566929708,-0.11023902431110266,-0.1320802756896299,-0.14807574569312287,-0.15069945082711006,-0.14436425972281017,-0.13661799214854353,-0.131518256884274,-0.12890703222308963,-0.12720482738776934,-0.12523685001382462,-0.122652666716058,-0.11995409727602244,-0.11767205541653941,-0.11531762249923211,-0.11197297700740937,-0.10761940554757349,-0.1031295012649717,-0.09945650030848532,-0.09700010111572524,-0.09526077879165994,-0.09349241312028424,-0.09186998845755515,-0.09094822200977545,-0.08967056358274735,-0.0852915515922052,-0.07597983638910558,-0.06248086572992281,-0.047346314910898836,-0.033864002540943135,-0.02461836336217235,-0.0193055548072359,-0.01451992026416241,-0.006181419751925498,0.008222584868187128,0.029045869960278855,0.054641470177838575,0.08208613266102342,0.10894719166233155,0.1344073699091756,0.15848285222659947,0.18115629442898978,0.202439901378057,0.22231823116400398,0.24012087811843164,0.2540949343534475,0.262303004881593,0.26419454182089613,0.26068859556482127,0.2530809556763071,0.24254182293150703,0.23012136526289242,0.21679767167278452,0.20324801073550916,0.18894028038780325,0.17143182967272524,0.14701457104824106,0.1129335281255104,0.07017438867955803,0.024056121675803857,-0.01875889858481026,-0.05417347692485964,-0.08196302621509433,-0.10428885863777042,-0.12359295952801436,-0.141312040030488,-0.15794533326513277,-0.17359673608537624,-0.18760021387106768,-0.19808861995274574,-0.2027002549273405,-0.19974450107337915,-0.1889359893863521,-0.17172218228611486,-0.15138737109967135,-0.13250428800776443,-0.11901099267291636,-0.11166333447000878,-0.10740634616411948,-0.10171237916378073,-0.09173569478176827,-0.07760466418677946,-0.06157726840394971,-0.04635207205394398,-0.03325818166173886,-0.021473501717555025,-0.009515141052155424,0.0023662658293986984,0.011741674336933221,0.015941456569968867,0.014125135977315732,0.008013402509169931,0.0013735438754183607,-0.0014406437974405703,0.0026202266259498924,0.013514894838758142,0.027501405717316962,0.039027548487880696,0.044126491579760216,0.04253888603239005,0.03715736867497202,0.03189944994372593,1
0.02694869703473471,0.016313117553933006,0.0006624265532574987,-0.015843362815935545,-0.027697121910566815,-0.03082856614755776,-0.02453431095136926,-0.011524320669987318,0.0032886913970114353,0.01481566783199816,0.02038908936256746,0.021283699164243285,0.021237306757968363,0.02305195951009259,0.02654697489559608,0.029087189961729695,0.027328792705228824,0.018994858828305403,0.004148662459718529,-0.014754348640092483,-0.03419719806851765,-0.051300959119379395,-0.06469407702313057,-0.0742640535023228,-0.08031181246061303,-0.08325721068236829,-0.0842230451260307,-0.08508775075053257,-0.08757424470982575,-0.09232964780665813,-0.09870303373613427,-0.10538527206171931,-0.11119994251908533,-0.11575104847381652,-0.12008377742828459,-0.12616526144603835,-0.13445922959051304,-0.1415790078961943,-0.14090690043274043,-0.12698406546067714,-0.10144501261458554,-0.07503033747056854,-0.059967165239728434,-0.05618617875313888,-0.04310222754909605,0.016549891698107756,0.1619185280493468,0.4107693394425913,0.7341668700275086,1.0461280675394327,1.2265279671460316,1.1750993174996074,0.8692272621570598,0.3892992228844137,-0.11037624704796088,-0.4735933825766866,-0.6156363113006367,-0.5549584567642591,-0.3871269461106176,-0.22147185554987028,-0.12372201750758673,-0.09899807170567773,-0.11521839666186179,-0.13808958704919858,-0.15038434812859192,-0.15116786690591635,-0.14608829731509154,-0.13959391375947225,-0.1332365818382008,-0.12763748417255086,-0.12428745659451154,-0.12563979710774528,-0.13348265370458012,-0.14644261727178665,-0.15855749564830085,-0.1613467486141723,-0.1493195029416208,-0.12500162234345455,-0.09867002209525043,-0.08190480716049858,-0.07999071604461327,-0.08938615871690833,-0.10143590431298762,-0.10828412330831824,-0.10684497422475285,-0.09912527373940423,-0.08901500446689997,-0.0788774258891795,-0.06941272161071778,-0.060920101649359806,-0.05321257186597197,-0.04523483404404878,-0.03556554562044122,-0.02335829092574854,-0.0083505763319324,0.01080533634049979,0.037084851022144455,0.07219278418117538,0.11327066485376672,0.15278699647122498,0.1819825019425238,0.19634996320568587,0.19927871402530728,0.20008221774042326,0.20764771236875862,0.2247690828516631,0.24711252581621987,0.2669206701403874,0.27831195057862557,0.2803184103385762,0.2758198100659832,0.26818979802028603,0.2587623129656183,0.24643056186323184,0.22908628548598714,0.2055045841201526,0.17590499034802526,0.14100564119112702,0.10127094963660122,0.057499871288459535,0.01174245874170541,-0.03289730838606272,-0.07325670345154094,-0.10690376098133564,-0.132578532183087,-0.1503494469461983,-0.1614506964425631,-0.16796143445302664,-0.17225280118008357,-0.17600407251212305,-0.17963085357869224,-0.18262710200370386,-0.18381371334111826,-0.1816357885116407,-0.17521250509168643,-0.16504786565852292,-0.15258944735007174,-0.13939183870492475,-0.1265282890334887,-0.11441841578204136,-0.1030497417087488,-0.09218023726989676,-0.08133868751411902,-0.07005596272280805,-0.058355855851982934,-0.0467045449617027,-0.035438959874399587,-0.02457875111853769,-0.014178616652880977,-0.0047675280193997666,0.002743031812303582,0.00797519566021426,0.011779600910705686,0.015535388686549956,0.020006615813669918,0.025361132760220128,0.03158197674017518,0.03802180912962297,0.04319416325571962,0.04565400641660713,0.04490874230245892,0.04171353087740468,1
