-0.025247267900036154,-0.020481168271675267,-0.01674255249162865,-0.018013214849189305,-0.02430535460833066,-0.03112461932794581,-0.03327616023192513,-0.028993551907148984,-0.020667196904633766,-0.012788415662722711,-0.009076963840986704,-0.010211383195600773,-0.01367415519668084,-0.01630706492851947,-0.017271969178164936,-0.01817142921400155,-0.02109630865147987,-0.02724903500455441,-0.03625333730095257,-0.046451148262913,-0.05646421738666689,-0.06589389871234899,-0.0745879693219797,-0.0819698168915682,-0.08691318984386301,-0.08873150691908463,-0.08897129802024283,-0.09149864163809987,-0.09965859817485362,-0.11236401284092214,-0.12309050806434618,-0.1242064136570631,-0.11330119241161961,-0.09618204645109402,-0.08397530677423266,-0.08500924199044677,-0.09745855515729719,-0.1100018386289424,-0.11066020685711493,-0.09714479091579725,-0.08036294290539832,-0.0766369561433706,-0.0924766529066782,-0.11243660835390458,-0.09917734171777762,-0.006411783166533816,0.2002489748016962,0.519607628867905,0.8970860286709047,1.2278841264591591,1.3898919918765849,1.2970356525714437,0.9483013627368482,0.44194649430335553,-0.062348087733845314,-0.41718697852847125,-0.5537924379173219,-0.502495253130172,-0.3595426954495544,-0.22535305426729585,-0.154487405379745,-0.14538723916346194,-0.16605463517047453,-0.1867476523091563,-0.19543940511837937,-0.19463327892801777,-0.1908539373747076,-0.18693763265570196,-0.1812936803504979,-0.1712999331179414,-0.15605482318502936,-0.13724180396741292,-0.1187158536604363,-0.10509694700886395,-0.0996996412794711,-0.10262224966657212,-0.11079934010890717,-0.12032565053865667,-0.12838076197771348,-0.1334389548080101,-0.13465491418320744,-0.13110072625585298,-0.12209648875562126,-0.10874723594096525,-0.09445993276061213,-0.08347324445850324,-0.0784515399616025,-0.07889717036950944,-0.08177804804302853,-0.08337680845178784,-0.08061896758233968,-0.07189849885950585,-0.05794232126002194,-0.04226840965373613,-0.02989110421763954,-0.02436366734296832,-0.025740674538512285,-0.030860725749477305,-0.03489397273548405,-0.032942622493959205,-0.021179804240011077,0.0018162320223682662,0.033876749650370214,0.07037699031991625,0.10703543446633482,0.1412841058189096,0.1717316809962652,0.19764180832557324,0.2193619507161673,0.23893547920605862,0.25962472681878296,0.2840378367553825,0.3126797479704929,0.34431363823861366,0.37630791882879844,0.4035076734020159,0.4177143967145984,0.41031805511475516,0.37695423254695426,0.32037907293691614,0.2498777254069116,0.17782645494224764,0.11402516553155233,0.060940892330655014,0.014766158443192325,-0.02902037426133673,-0.0718456137918781,-0.11197494689304245,-0.1464427494193497,-0.1731932093717642,-0.19194652845941668,-0.20380062311605923,-0.21062511492509745,-0.21476366644379266,-0.21841207924101624,-0.2221277300832555,-0.22369959061574884,-0.2188957061873889,-0.20346252561104408,-0.17513937707390778,-0.13602683540879779,-0.09444549946850836,-0.06326793810151582,-0.05403396222099708,-0.07003864885662787,-0.10294056252828432,-0.13592974834879298,-0.1525606073360785,-0.1457117595548379,-0.12035926380169117,-0.08917921089934412,-0.06487170545474165,-0.05367559016885423,-0.05364337689523212,-0.05788769814100773,-0.05922272338052071,-0.05316779278206127,-0.038678335507383976,-0.017633348040480282,0.005621450708113197,0.024776119729512765,0.033232460705553406,1
-0.027195827652782122,-0.02870463403254243,-0.02863940387046379,-0.025695849050354585,-0.01858286972375758,-0.0070307028530857294,0.007404416774114247,0.021197279975075735,0.0306066077311981,0.034074778318609104,0.032606887866796434,0.028245462801772966,0.022763810333041534,0.01720913726420895,0.011885056742589968,0.0065724680468271625,0.0007405101608426363,-0.006118224595106916,-0.014026022185821482,-0.02263338340387388,-0.03172794567399814,-0.041093848685876816,-0.04971319717181821,-0.0555873809431749,-0.05706279090999211,-0.05439450288084764,-0.04993919877956569,-0.047344679288815215,-0.05028721238928718,-0.060671465435962725,-0.0772933362745593,-0.09635524860235889,-0.11367978141036897,-0.12674580552924472,-0.13499478438403756,-0.13915048082388032,-0.14017526043622205,-0.1377653578679025,-0.13049075849604727,-0.11889298431306498,-0.10822563505451055,-0.10561982889756473,-0.1106143134659445,-0.10612469181023498,-0.05896486616117712,0.06812190462585005,0.2965778834530822,0.6100335470784349,0.9412954368400017,1.1838959225827563,1.2331826378958375,1.0389763389081756,0.6396100563867883,0.15416363212486572,-0.2686025155110012,-0.517832998005074,-0.5655502181823036,-0.46565122934168385,-0.31232105727084314,-0.1859569640442514,-0.12000479764485136,-0.10430657238389934,-0.11169894587105347,-0.12159128537536748,-0.1269087154284464,-0.12922231255617614,-0.1315706767377285,-0.13420474224547757,-0.1351748432848881,-0.1336788898556792,-0.1309932229194493,-0.12828462834342147,-0.12534701072923518,-0.12134075052495684,-0.11602415491307828,-0.11046492454228286,-0.10683584171707096,-0.10779998206905049,-0.11509626874003998,-0.1275358177511649,-0.1408585705853825,-0.1500379581465246,-0.15180530079568702,-0.1456867453943887,-0.13369005217725294,-0.11922348249307879,-0.10561369185449952,-0.09526582837315445,-0.08989890684566351,-0.09052694094473095,-0.09626886469410417,-0.10309519148858443,-0.10482689641582446,-0.0967647938250503,-0.07877782385388221,-0.055383433930082264,-0.03333980806934558,-0.017962603553846893,-0.010162173443014993,-0.006255586177780669,0.00038524972677832225,0.017334971238155514,0.04972473144702898,0.0964893329278459,0.15028152588713642,0.2014903591286279,0.24284592173922243,0.27216892331764525,0.29261493539183603,0.3102331437338987,0.3299618741313556,0.352738936075385,0.3754353508760459,0.39312925002949867,0.40223361350711284,0.4019224214997406,0.39254760524817195,0.37371180695545186,0.34409113755745746,0.30227081547608164,0.2482572178144566,0.1847036920845347,0.11636471549421903,0.04851909157188425,-0.014160006255139468,-0.06822206038486273,-0.11208705264262367,-0.146203000934994,-0.1721886874673701,-0.19181181983073511,-0.20642379317359655,-0.2167010786596773,-0.2223848870449524,-0.22234638727757933,-0.21600008571449159,-0.20492950234786747,-0.1924182386687407,-0.1814661740599655,-0.17332431726967124,-0.16741658349223582,-0.16227624711365204,-0.15644775633236105,-0.14880837713687542,-0.13840642035356865,-0.124416862635788,-0.10689943824778458,-0.08789271124472695,-0.07151586348569909,-0.0616059656790741,-0.05784462346572253,-0.05510530176453915,-0.04784848752819114,-0.034886987661753854,-0.020109536229319852,-0.009295848313728688,-0.0057999991255511425,-0.008565629609232187,-0.013718882679064827,-0.017583854912809792,-0.018467525239017964,-0.016165711691276164,-0.010524132439938265,1
-0.010356474803977233,-0.01443565171446478,-0.016672379024880984,-0.01778492490839834,-0.017115104372963614,-0.012942371521028439,-0.004683242112452956,0.005738143166671659,0.01495540649967379,0.02055353935906082,0.02251781832568188,0.022499714353302235,0.021745698748784816,0.019849724342973798,0.015190688240036344,0.006183105390889036,-0.0074405712256658645,-0.024188303998632987,-0.04178212291887838,-0.05835342728073736,-0.07270226209124428,-0.08388577552581994,-0.09107797070865498,-0.09440939449663419,-0.09564282022468543,-0.09714358803836454,-0.10043557492274008,-0.1061243992333431,-0.11421652445246819,-0.12391933239738642,-0.1336178800464134,-0.14131245639343176,-0.14561788547692228,-0.1469012392344129,-0.14692345049799216,-0.14721224564320018,-0.1486002708839178,-0.15184452298146103,-0.15760535135967488,-0.16647693269021324,-0.1788149589578931,-0.19184996310628147,-0.19511927050101902,-0.16785019200531207,-0.07928901525074898,0.1058198034515709,0.4095253018954219,0.8105631917068785,1.2222797091981656,1.5071946132620893,1.5346702817492504,1.2535770065421337,0.7333806509743634,0.14084198532822587,-0.33885902389462663,-0.5889771238829421,-0.6044870544150428,-0.4715087555885129,-0.3040662050207208,-0.1827753878665644,-0.1305305853755484,-0.12811818422754082,-0.14520305452719812,-0.1608912227479547,-0.16760295666699007,-0.16664849007042162,-0.16277215450756477,-0.15980227996471263,-0.15863039958806996,-0.15810826427359104,-0.15690405966701323,-0.15411346175856966,-0.14920515025177208,-0.14243535856400286,-0.13516115593502748,-0.12928933189730202,-0.1262940466231,-0.1268287247454835,-0.1309545721312585,-0.13811852861606216,-0.14677719551366716,-0.15448472326684728,-0.15883903268766994,-0.15865258653024367,-0.15437082571689453,-0.14763760578915522,-0.14070834242542324,-0.13558370964362024,-0.13253434678521736,-0.1293376524795763,-0.1225807939218121,-0.11007064671679999,-0.09256939968405128,-0.07385355396431745,-0.058124815495017454,-0.04589591696643689,-0.03310995799726272,-0.015065792594433764,0.00989982950329403,0.040126049937220215,0.07240684651490087,0.10463894760450973,0.13715930943142393,0.1712654726132122,0.2071869774987352,0.24328801409356368,0.27658361351811955,0.30473095303866904,0.3276363490345798,0.3466809791041739,0.3631625885090683,0.3780153102421481,0.3919606775143007,0.40482672457882113,0.41459971022863784,0.41754762843170423,0.4095155027564909,0.3869315687177773,0.3476295955397842,0.29236953293939827,0.22526408834946954,0.15228839195910288,0.0792859392707188,0.009865108525919458,-0.055030840042506995,-0.1148356014579886,-0.1676414808621397,-0.2105300144711663,-0.2407546600483103,-0.2573217279560128,-0.261777081168236,-0.2575551948870404,-0.24875848918897542,-0.23876896401689743,-0.22919423637366493,-0.21996633522760245,-0.21049121610022983,-0.20077296420433097,-0.19131025543757746,-0.1819931845858819,-0.17157071295793325,-0.1585819726068357,-0.14280122569155426,-0.12599683482970925,-0.11208271728644044,-0.10560094730023897,-0.10782479286225698,-0.11404120326696746,-0.11559718971981961,-0.10559890546024282,-0.08390068169214693,-0.05744481966645677,-0.035788199286548555,-0.02504005600098136,-0.023944086437886657,-0.025056919671792414,-0.020722673489617868,-0.00863729966555176,0.007890035229967896,0.024003743720796073,0.036944492184674556,0.04659552053914832,1
-0.00020681258353962999,-0.02030193063649618,-0.04001577937914459,-0.05323758473076823,-0.05522685263361557,-0.04437991446290657,-0.023477361772411567,0.0008911470543987981,0.021130511357662245,0.03225338945699155,0.03409343440121178,0.030731184262888924,0.027530519246088937,0.02744833664714258,0.029023055762037314,0.028003664764105658,0.021131583304233054,0.008168990213920433,-0.008789217426108754,-0.026993897150984457,-0.044201362467820755,-0.05847677131106297,-0.06806939754079046,-0.07269694793062588,-0.07407563242143317,-0.07450676073454132,-0.07585616990783732,-0.07981355537056416,-0.08749853399354902,-0.09805025821721658,-0.10849597887735396,-0.11595730216978789,-0.1199749721300625,-0.1224279613742794,-0.12534322646867024,-0.12898926103903613,-0.13206065117340654,-0.1332078174646198,-0.13220079213350697,-0.13106269191159375,-0.13466844429346497,-0.14708561934403966,-0.16364519877329886,-0.1650508700395503,-0.11885243219801468,0.010252356279014253,0.24318391387723357,0.5672903228833475,0.9229048997742503,1.2085184844411696,1.3139798462606864,1.1722145836406332,0.8018816083877653,0.31104182577128386,-0.1480405910638017,-0.4487975865391246,-0.5433818714265292,-0.4715226627546394,-0.32540466941785606,-0.19444741532859516,-0.12443553467913834,-0.11209584595112351,-0.12815653931373944,-0.14486781183786024,-0.14975378821707452,-0.1443256567573167,-0.13607188291229366,-0.13107330521858424,-0.13094862925939604,-0.13415828020899445,-0.13851174596455945,-0.14205655925585706,-0.14301782215808392,-0.1406614840304477,-0.13601724283939828,-0.13082033012737018,-0.12624035709211046,-0.12304364654318095,-0.12205283561774119,-0.12358023068670759,-0.12663210662058738,-0.129284452692797,-0.12988850561762197,-0.1278177929852657,-0.12356077131975744,-0.1185331764905907,-0.11444528932895945,-0.11254815822472045,-0.11323333804412983,-0.11526787166368642,-0.11530286826922893,-0.10969245341902929,-0.09742329546897917,-0.08113131491767252,-0.0655907289984427,-0.05445593238289141,-0.04702036180880361,-0.0381189223306604,-0.021842638521183327,0.004367959914054531,0.038374256592305346,0.07465841468980539,0.10741010816725557,0.13453437182229802,0.1595980975091632,0.18894846772998972,0.22601836752134766,0.2680262597429428,0.3077741626829752,0.3385486205359903,0.3583184525082864,0.3704394417262371,0.3803811366819613,0.3912164037684203,0.40155689751314355,0.4066943008190748,0.4008187553654239,0.3789392213151486,0.33882386494666933,0.2823824849325923,0.21550487481454375,0.14583193274291428,0.07928048343820249,0.018762264861275108,-0.034708571534042845,-0.081698286406418,-0.1238765994419831,-0.16201606964433102,-0.19463713455096499,-0.21870077166108365,-0.23210223252820272,-0.23621472491939133,-0.23561167527690938,-0.23464704986772406,-0.2339651703967897,-0.23046497700399995,-0.22083451993349834,-0.20476898856548906,-0.18522291488032838,-0.16655398969951601,-0.1519440871124716,-0.1414829204007555,-0.1324811969099146,-0.12208905160067716,-0.11018356492350545,-0.09940035958754298,-0.09199803720182294,-0.08740264669369972,-0.0825666258310904,-0.07415164904362448,-0.061551301503251304,-0.04824708315189144,-0.039387385122997255,-0.03764659088890772,-0.04065146761641966,-0.04201302965693318,-0.03565260640955847,-0.019890524468311042,0.0014492834607873033,0.02093789541211184,0.03210653540171485,0.034188584470894415,1
0.00571968735098142,-0.004863632984914567,-0.018156544197905414,-0.029852913794812894,-0.03570620070114954,-0.03298582365481591,-0.02189840029256173,-0.006346862604910851,0.007704072665222137,0.015782809781554517,0.017555615254733335,0.016321550465709003,0.01596274259302092,0.017921342607024424,0.020275480164520358,0.019591207868216123,0.014061377757322378,0.004412573230939529,-0.007999711452514153,-0.022342793214671818,-0.03759468837228633,-0.05219821678053023,-0.0646486083793748,-0.07385032252875345,-0.07929264405742734,-0.08164538077851764,-0.08289604358695588,-0.08523127315836646,-0.08967352653003052,-0.09594486132097305,-0.10350563450269698,-0.11196387055552719,-0.12021759037130134,-0.12645764391943037,-0.12980420088574468,-0.1310586235609692,-0.13156687301337383,-0.1321473048323729,-0.1330303166879534,-0.13443668352448634,-0.137670632938304,-0.14497596689335449,-0.15546883215716933,-0.15844582757032602,-0.12958539861653948,-0.03440822920213346,0.15947385562979763,0.46091285994033454,0.8310054833945063,1.175015213299499,1.3684419877299785,1.312745941595845,0.991555938586659,0.4915555806746025,-0.030564219930728685,-0.41983261406635747,-0.5920426013829769,-0.5614970722286879,-0.41560595931754307,-0.25681391684022103,-0.1509306600871499,-0.11095096730376011,-0.1148103253820743,-0.13336393392257023,-0.14798376112171405,-0.1534083974336602,-0.15206125692850825,-0.14770604436713877,-0.1428052853083298,-0.13891821115456973,-0.13763521201452453,-0.14045197978421212,-0.14715432511742074,-0.15416168343919184,-0.15566376529444,-0.14767203677666227,-0.13136242047154104,-0.11291838724053481,-0.10013972679624283,-0.09805884172162481,-0.10627563410620612,-0.11978878101394992,-0.132484371763206,-0.14042282294710468,-0.14313687474661846,-0.14234610034672407,-0.13924791673858644,-0.13362295716658165,-0.12521863411565898,-0.11452861433143566,-0.10239617767330206,-0.09003619860931188,-0.07895068979715236,-0.06970006652501547,-0.06088112753828698,-0.04998103145655912,-0.035304483251004756,-0.016736281160290196,0.004863718333613893,0.028340749115729955,0.05275489412366409,0.0776501941537112,0.10292102214187591,0.12878841028728738,0.15618691577130703,0.186822058853025,0.22183502819228804,0.2598581170002765,0.2968943891211761,0.3284396231835011,0.3519693186985754,0.3683380236452037,0.3811153268199144,0.3936695796065403,0.4059439700676299,0.41355561821862274,0.4097782886357899,0.3887456729182851,0.34818153328461726,0.29060660938586447,0.222310175571775,0.15056341957351665,0.08089793594825209,0.01608863421019803,-0.04313273206963475,-0.09656478055237579,-0.14321329036314526,-0.18107511204626067,-0.2079878982782809,-0.22296092295171238,-0.22764727347988917,-0.22651234806394088,-0.22439338497820266,-0.22358092460543502,-0.22351267332640845,-0.22227984189563893,-0.2177365792063155,-0.20874115492371453,-0.19626089608916056,-0.1825153812946809,-0.1696790963749799,-0.15959298227710086,-0.15275694400008927,-0.147300305080889,-0.13988230780421712,-0.12758810517550112,-0.10966422852368662,-0.0884296957979751,-0.0685691386470234,-0.0548118587459228,-0.048956997892843676,-0.048397278179314496,-0.04789553305478296,-0.04333353482869784,-0.03417776220300113,-0.023060612291057197,-0.013310372184113444,-0.00640848383133525,-0.0012904873552467867,0.004185868736822473,0.011099273698322538,0.018650112268883436,1
0.006701748698019264,0.0028831949878661218,-0.003984509573975263,-0.011401179910245297,-0.015938083233534583,-0.015245741997469923,-0.009777288045879413,-0.0020868792262305133,0.005199373679690339,0.010558205788413601,0.013853937168805402,0.015890908324725738,0.01692027580149906,0.01547904329207684,0.009497717389066492,-0.00121058238161193,-0.014087771302077425,-0.025281899631467812,-0.03192829625916283,-0.03397391934094157,-0.03414700938969899,-0.03619530267621591,-0.04294520683691611,-0.05472676771640428,-0.06880999409120389,-0.08096939880503821,-0.08835362855931611,-0.09126739439957973,-0.09298680105075724,-0.09830829162623816,-0.1110560832633055,-0.13146273696106808,-0.15560671025552847,-0.17709314331174325,-0.18938874481559126,-0.18858329831349582,-0.17608686799071852,-0.1584636152148822,-0.14366181711936257,-0.1376517773420586,-0.14368915743094096,-0.16102276910933133,-0.1809598423818148,-0.1828808553346902,-0.13391667473249064,0.004526634858832448,0.2602110598868201,0.6246655721952818,1.0320533174977773,1.3636909808197173,1.4889783115056066,1.3285160956741084,0.9048140462187091,0.3451555443314059,-0.17314230905453798,-0.5054935929182661,-0.6015886910764323,-0.512658006379699,-0.3464843836340648,-0.20251032101530567,-0.12798116946884747,-0.11615335194476387,-0.13449347800973804,-0.15414561046452085,-0.16263215015215665,-0.16059510548602446,-0.1526757828645245,-0.1421358053028109,-0.13129970452031897,-0.12289407756553757,-0.11946158139797401,-0.12268007734047182,-0.1332718900471589,-0.15036348793877383,-0.17087775209797446,-0.19012100476623728,-0.20292128552383992,-0.20469584512493277,-0.1932325854029979,-0.17065926992959055,-0.14342411979633582,-0.11978645998856095,-0.10556676925808417,-0.09991807186036383,-0.09543700420464904,-0.08440572369928798,-0.06608828608002817,-0.048786013322846586,-0.04492638338386807,-0.062092168592768684,-0.09627889742150146,-0.13255677566076976,-0.15280732997380908,-0.14603637892258134,-0.11452766607190164,-0.07116033939263802,-0.030614979600891854,-0.0013287564406739387,0.01730020256170899,0.032244262595320754,0.05139932120820036,0.07873954427917645,0.11274313765278524,0.1484421852192957,0.18080301308130714,0.20729977845831402,0.22909964694358387,0.25020915355007417,0.27467616279782925,0.3040257272815222,0.33623427585315,0.36640375855577434,0.3897078159138459,0.40422947143658133,0.41026159202229945,0.40800765509353953,0.3968221078044838,0.3748995031515359,0.3392419160506749,0.28790207642456395,0.22278159997076266,0.14936027205233346,0.07401633944187157,0.0025377106655283532,-0.06000077114888794,-0.11047781353492107,-0.14903363817960358,-0.1780857431977232,-0.20004683591251932,-0.2160209358961069,-0.22664133065186265,-0.23388930853610712,-0.24084423588514117,-0.24901528331617734,-0.2564309256469346,-0.2583344320882054,-0.24951660014342703,-0.22651821515256235,-0.18937329828489272,-0.14323701427414784,-0.09807361457587423,-0.06538614863526165,-0.05399746916250686,-0.06639720383204696,-0.09637444564304277,-0.12959929116996005,-0.14874493910220446,-0.1418453659611055,-0.10924917907512487,-0.06431102150124067,-0.02590137189729957,-0.007397900573357347,-0.01034782044105538,-0.025571652479718904,-0.03934884833008695,-0.041163477257936204,-0.028642604928138388,-0.007270982146941923,0.013907394918148977,0.027714295451266274,0.03205419216445822,0.029050968162872743,1
-0.07106572892443182,-0.09622803492810766,-0.09752901851140683,-0.08215618384627654,-0.05910550659844304,-0.035745544791430495,-0.01752808150359518,-0.007514762767681715,-0.005347690542716214,-0.007404722769303243,-0.0086076160347655,-0.004788667993817773,0.005213546002235399,0.018239710556999817,0.027879072746532136,0.027882230772105027,0.01550354935116709,-0.006789674128456113,-0.03218732833387806,-0.053047267034092925,-0.06467620722532134,-0.06706842086545664,-0.06431259156844517,-0.06234032113964524,-0.06584361286035094,-0.07561490237303019,-0.08814120640847338,-0.09810733547142653,-0.10217796009679611,-0.10140889946149573,-0.10044995482872351,-0.10417674965093815,-0.11444177510793643,-0.12910506480319,-0.1433229701006442,-0.15204450304296965,-0.1527387628685693,-0.14693610582432345,-0.13988281883780418,-0.13911058034442378,-0.15128671832986954,-0.17584737330698125,-0.19858560953708107,-0.1903368054860039,-0.1119435884274373,0.07378550247891473,0.38121175693450854,0.7769734270851569,1.1686715507100625,1.4267238062320486,1.438880214278584,1.1699096263429969,0.6896180611654439,0.14785198922629927,-0.29333376970136055,-0.5317330867101857,-0.5602905099127554,-0.45068074218551446,-0.301899500720644,-0.18803085045163256,-0.13451615592477373,-0.12796120961940305,-0.14145868968217765,-0.1545875870827336,-0.15975264381035284,-0.15855070936318144,-0.15557414682142978,-0.15423284171114415,-0.15535607823209688,-0.15759212233143016,-0.15832401426071593,-0.15484641175044006,-0.1463506810726927,-0.13543390168749853,-0.12672479808370532,-0.12347072871682169,-0.12546191326310646,-0.12986233890855056,-0.13382286981397926,-0.135987211944181,-0.13581391150566421,-0.13325151735332022,-0.12950115340531837,-0.12646305997854515,-0.12496470496912274,-0.12415972469268842,-0.12235294210874012,-0.11809738510420736,-0.11101044705371241,-0.10217237410372654,-0.09367718816820506,-0.08695350771320465,-0.0812451274294047,-0.07406318738569663,-0.06321447014519252,-0.04853090048373701,-0.031785752922674174,-0.015053615624056122,0.0011300460267107647,0.01873127559699192,0.04117842008617676,0.07089155138405356,0.10770914012739041,0.14861051248927942,0.18837503901870395,0.22198569645628446,0.24765976004330295,0.26778836984097454,0.2871717726413495,0.3096756031175749,0.335271995687593,0.3600398427210159,0.37916509165060824,0.38988142966729095,0.3918263494054806,0.3854219316175177,0.3707152937801767,0.3472412862062585,0.31388169129299603,0.26908745347992563,0.21252085694343975,0.14670860727400215,0.07626788718084643,0.006439642510759007,-0.056973288766823574,-0.10892977946856387,-0.1478278956289213,-0.17573954039410755,-0.19614826498998802,-0.21150794269535322,-0.22231871880768023,-0.22837996550962036,-0.23005297822058784,-0.2280297681799528,-0.22295452861976456,-0.2153319750260305,-0.2053818608966461,-0.19331015532304907,-0.17994254646117264,-0.16674226663989292,-0.15492234028847912,-0.14487344892157528,-0.13613949890182606,-0.12736815934199708,-0.11711941556725043,-0.10537687620761522,-0.09389376559460426,-0.08450245982956352,-0.076973588599092,-0.069427282950881,-0.060688110174373026,-0.050890560196046444,-0.040578105079133196,-0.03064713700394835,-0.022253380542379644,-0.015756507800338465,-0.010522657730830842,-0.00620289686007397,-0.002967894745848281,6.13104228975106e-05,0.005148014526923494,0.01372412968846324,1
-0.01628048487648537,-0.04574388361954452,-0.06749308805642469,-0.07500164425607808,-0.06521237623550764,-0.039627139193418134,-0.005161839924746204,0.02771032903029157,0.0492302536611115,0.0547922629064247,0.04693331027098496,0.03308656920659441,0.020988805649684965,0.014785093410160422,0.013560235695066342,0.013172572894202825,0.009777822426922272,0.0017683955632759336,-0.01077740794835192,-0.026805727260101643,-0.043946877062298,-0.05930308167895211,-0.07187266819636663,-0.08352140508912936,-0.0969802007237789,-0.11258652873946033,-0.1265079612957161,-0.13242201190887962,-0.12600133425284263,-0.10890472072035351,-0.08875368828358374,-0.07487502825260667,-0.07318128564796136,-0.08373132977611839,-0.10201004139504308,-0.12176972236817853,-0.13751546591904498,-0.14650108088529032,-0.14937794925714,-0.1496687119304023,-0.15300412705243732,-0.16400666074750408,-0.17940159021704286,-0.1815065671832481,-0.13784187866222278,-0.009813036582130154,0.22898703595775236,0.5685869542123241,0.9450275905055743,1.2476524314147053,1.3593125193334004,1.2133822748780823,0.834851731102645,0.33764909480841826,-0.12471839849116588,-0.4278855952298249,-0.5260907720147341,-0.45857595949170826,-0.31500865645931475,-0.18399617762823556,-0.11493914283301665,-0.10994771294183706,-0.14149543305362622,-0.1777157914693635,-0.19878543202019605,-0.20031100127241824,-0.1881958583842117,-0.17072360890227048,-0.15331345895207074,-0.13788870151984464,-0.12469091558824608,-0.11436429808372482,-0.10859811676929838,-0.10859110600577856,-0.11340919743163014,-0.12072885091797232,-0.12863263530566746,-0.1356565336398087,-0.1402039117840023,-0.1409132657726257,-0.1371238692276464,-0.12961987974436892,-0.12135263382207753,-0.11644372136249437,-0.11822266295191897,-0.1277290523080927,-0.14231151666432343,-0.15512825049400536,-0.15742047694004918,-0.14310680950850213,-0.11270115900285275,-0.07394437358227018,-0.03900157333961911,-0.019117008562716104,-0.01823301882771565,-0.02983739971726143,-0.040621449753454844,-0.038311789160392046,-0.01788740667032915,0.01690286528318982,0.056305015123065974,0.09022515483748311,0.11446318862667312,0.13301499711709813,0.15425454198555563,0.18441207092224277,0.22367320481814718,0.2671855164927058,0.3090095046057113,0.34543854044326733,0.3751176761291465,0.3969222827084542,0.40929370860931574,0.4116023577850494,0.4049334357010609,0.39136838274784197,0.37225384742990414,0.3464644026986652,0.3103990173074681,0.2600111173905514,0.19391129193421142,0.1160990014101867,0.035911452429037004,-0.035371275694843315,-0.0892423095635904,-0.12368553956506026,-0.14366468912546815,-0.15770198984639644,-0.1729280559259229,-0.19191184048221918,-0.21229834626309518,-0.2285595816010506,-0.2353763687872899,-0.23100017200333867,-0.21809155327150556,-0.2020914320059954,-0.18876953636053967,-0.18141289894371943,-0.179005347107574,-0.17721520576740044,-0.17079402803297655,-0.15582722377993843,-0.13251504236342954,-0.1073098007804092,-0.09112920385954222,-0.09257694287796979,-0.1100300226711443,-0.12960835818330352,-0.13258473108308746,-0.10803573970513221,-0.06195023433440824,-0.015232501610042568,0.010003159834924169,0.005920410659956563,-0.016810934834738896,-0.03850504654629214,-0.044170091618605856,-0.03146360659804025,-0.009384759730142422,0.009966178921557864,0.019386897463619258,0.01855354293374783,1
0.003807096600813618,-0.03615862281117051,-0.06820754754766925,-0.0840327369570408,-0.07960741764516646,-0.0559395621297482,-0.018911008848395677,0.022270036857626664,0.05734787516943432,0.07749563505796522,0.07796361271783968,0.0598093536308198,0.02947613996073006,-0.003550271226516726,-0.029901436893672837,-0.04325733287120272,-0.04258156662851805,-0.032970712418281076,-0.02328746811239403,-0.020880122492424158,-0.027418068091694826,-0.03908170089914929,-0.05012966889693973,-0.056494923509751147,-0.05773134524620973,-0.057287053743990526,-0.060493058528241855,-0.07086798331941904,-0.08771588134825363,-0.10697414477791665,-0.12442952452694081,-0.13871735638409247,-0.1514972302229512,-0.16477019595135692,-0.17761862665686956,-0.18473485683407959,-0.17887766066398697,-0.15659973580830105,-0.12245838529312046,-0.08846062118606345,-0.06934472702042621,-0.0742429373950883,-0.09688964217343835,-0.11100261001211112,-0.07585962756738643,0.049199143143169366,0.2849460072133247,0.6117069657196532,0.959179092002306,1.220397831185578,1.2910887732008982,1.1187591285941512,0.7363679543330509,0.257057633412492,-0.17363110998555276,-0.4427869567692174,-0.5154309632999711,-0.4372418179436032,-0.2978007515233016,-0.1793827158562854,-0.12190970503975518,-0.11967282864817123,-0.14255555929828345,-0.16192387826802845,-0.16523287474161813,-0.15599134956199,-0.1450257355443184,-0.14094964317907963,-0.14502954470708215,-0.15169774629360788,-0.15359634162532754,-0.14757232349912153,-0.13686355110888615,-0.12819962635743246,-0.1263842522996235,-0.13057028388085282,-0.1356639815370092,-0.13712436413606016,-0.1339516721026671,-0.12788331049507018,-0.12089134253929278,-0.11401676153708867,-0.10810232582723976,-0.1042861530451006,-0.1037609747327137,-0.1076798903102457,-0.11677712848868066,-0.13013699722175184,-0.14319342455078224,-0.14717284331108085,-0.13360580765966534,-0.10206515056906137,-0.0634801378137327,-0.034770753258664966,-0.027908095180363444,-0.041083072524068606,-0.05939786117245177,-0.06515209036153662,-0.04919739260570653,-0.014205952198895443,0.030969788232263762,0.07826289521092915,0.12278612872982002,0.1618155048319784,0.19369115810688933,0.21844790741241735,0.23920564269529973,0.26114152472040425,0.2876082622676338,0.316916705523031,0.3430279106353287,0.360161611147619,0.3679412450244995,0.3721007516923698,0.37846939110857003,0.38571847594887704,0.38517039770213535,0.3669735837558275,0.3256422166852671,0.262765474713967,0.1873020879797019,0.11140544683089768,0.04379988176869485,-0.01259816427950082,-0.0584765975854664,-0.09630949707957884,-0.1294101355163102,-0.15986756352875298,-0.1868916409870618,-0.20767358969403474,-0.21915174044654834,-0.21938618498438744,-0.20969030170816885,-0.19588862827872375,-0.18566895397944996,-0.1836350041089819,-0.1882710099594002,-0.19285823512347725,-0.18989078260037157,-0.17605054159927902,-0.1539257893722361,-0.13005125913605833,-0.11136725905818327,-0.10146554456372017,-0.09857673842879486,-0.09728433289895369,-0.09243128062400983,-0.08214293802234755,-0.0690177730476367,-0.05922249376803703,-0.058715028586369414,-0.0682612798092178,-0.08169148997283353,-0.08912129705161104,-0.08251445002805484,-0.06041013539358977,-0.02906183964944162,0.0014738828559239664,0.023597726390234424,0.03558660156571292,0.040246432130196436,0.041233961967468834,1
-0.010000731548115314,-0.022914732513776532,-0.03506060996300977,-0.04213156353381829,-0.041146887822437306,-0.03121896594382974,-0.014363240365476352,0.004101259362193276,0.01735291313281961,0.020733595673753574,0.014741032145087981,0.005027884554255926,-0.0014550297041400814,-0.0010206011832502252,0.0053278729666173304,0.01313571108939202,0.01710629346417617,0.014429721375631126,0.006184030978578766,-0.0047149473943412885,-0.016398624877806172,-0.02870480583393669,-0.04193694567103978,-0.05593885528122826,-0.07001934568166757,-0.08301541057687321,-0.09352758280020647,-0.10044279817385277,-0.10340912402689859,-0.10301406831917906,-0.1010235630886458,-0.10040777693748043,-0.1041585692749427,-0.11384378480179322,-0.1291018766495513,-0.14748650224544663,-0.1643374726561297,-0.1732628361443296,-0.1682708304408564,-0.1480622619341961,-0.12032805654789815,-0.10006706884020009,-0.09796823057923268,-0.10593026681969704,-0.09225802307687249,-0.011811482309397596,0.17191726148941408,0.4607193834838018,0.8041816167701337,1.1046115821602347,1.249806718056959,1.1633779755761944,0.8485854323147275,0.39773971804943725,-0.045541549322614,-0.35284508938213266,-0.46742883824443215,-0.41940921928527863,-0.2946732908403924,-0.18006967222550513,-0.12070726584656823,-0.11328470784432458,-0.12949259007445338,-0.14353834498586437,-0.14494619868229205,-0.13624706003478082,-0.12477721427810215,-0.11650614662036718,-0.11394548062617312,-0.11673435337084506,-0.12314906855165568,-0.1309544581273131,-0.13752546662802562,-0.14035159826018176,-0.1382077631935435,-0.13229918102181337,-0.12608299830848269,-0.12297976912641553,-0.12394972737598084,-0.12763790857084614,-0.13231782651094165,-0.1370707830440717,-0.1416613070880197,-0.14573388319177832,-0.14757268174219101,-0.14388767842478395,-0.13217011596182532,-0.11374308949732526,-0.09401709161741134,-0.07941035090001486,-0.0735339014809929,-0.07541146290341497,-0.08075607551492761,-0.08482285155567182,-0.08447648577257677,-0.0787905560058074,-0.06853082903823969,-0.055005817716126594,-0.03921951443735712,-0.02151072926536703,-0.0007856225629294458,0.02594066511076637,0.061411228926508465,0.10453108354960682,0.14956737710524198,0.18945135077690467,0.22034167730191642,0.24385115027746776,0.26522320699642515,0.28894425369321286,0.3157771324906847,0.34327375328462556,0.3678830777546559,0.3867317560492687,0.3983555753587457,0.40171114822937426,0.3949776990172034,0.37621612505507024,0.34452452218538604,0.30047297140733037,0.24626853355079556,0.18495521762108216,0.11940642943822655,0.05276287403510079,-0.010971277557050761,-0.06758324736592809,-0.11391653139437788,-0.14928016595930535,-0.17614245614925622,-0.19849549863652827,-0.21880593336310644,-0.23611946699946001,-0.24655579591820165,-0.2463280126400001,-0.23532034035787358,-0.21793565161873754,-0.20055562425538997,-0.1879442981509287,-0.18085745442237677,-0.17586969277672904,-0.16799222814001774,-0.15480678515053503,-0.13809810976379677,-0.12111913538687041,-0.10531326115775558,-0.09051912008169989,-0.0770463128429995,-0.06596740854181272,-0.057822670534913814,-0.05202394547001546,-0.047254569447477954,-0.04184180210307847,-0.03434042641788151,-0.024920441344106654,-0.015791976211842244,-0.009343104987088877,-0.005996416605599013,-0.003811744678948119,-6.413870552732931e-05,0.006362760328050009,0.014096397678582888,0.02062369450635481,1
0.009509842986600108,0.007253019134274865,0.002225550378677506,-0.003756007704941286,-0.007431737986352599,-0.0057283430456000015,0.0023913686063223734,0.014918428846045153,0.02757432488365758,0.03627220957072847,0.03943011565142509,0.03814788119957055,0.03411130902310839,0.027835627721206978,0.01899531246561724,0.007571095291541565,-0.005487034484191902,-0.01829969067119332,-0.028811420558992013,-0.03598162923066233,-0.04041069840478359,-0.043885690689219034,-0.04838777637904897,-0.05526682586874587,-0.06528111928127232,-0.0792276447904527,-0.09764584672368923,-0.11907683240841732,-0.1389811677298094,-0.15144948928092783,-0.1526463530169659,-0.1436881128687571,-0.1314170257223812,-0.12526300217842262,-0.13096651255277794,-0.14635654326279388,-0.1625502916654473,-0.169160918829068,-0.16106761021730417,-0.14348119488752661,-0.13024453404964983,-0.13303356208784858,-0.14744787242932256,-0.14667936180160204,-0.08763086849221903,0.072542107126697,0.35240306208204486,0.7214600607664368,1.0907142010370419,1.3347576977793012,1.3440849522728635,1.0834046276579614,0.6207378989573477,0.10378141737552435,-0.30742653115544494,-0.5135001165323358,-0.5135628565567751,-0.3883899948241474,-0.242867286785699,-0.1481147214386137,-0.11899096961097191,-0.13093969141741574,-0.1518743126269459,-0.16299389878217385,-0.16127141418830904,-0.15209532358032749,-0.14171469508656911,-0.1333396940025941,-0.12659391684998111,-0.11921431573847344,-0.10974990237584765,-0.09946005667404303,-0.09218968304162485,-0.0923568189244349,-0.10208086659496272,-0.11900517866660065,-0.13685918098184519,-0.14899651571879616,-0.1521105104353915,-0.14775121421378318,-0.14080323791663454,-0.13557442566420427,-0.13295042093128012,-0.13077468683274773,-0.12598155054827345,-0.1170296722581214,-0.10533677458890053,-0.0945334915029306,-0.08851333038592052,-0.08947506525989002,-0.09618741839176838,-0.10376076940854184,-0.10613252722003728,-0.09983025481490895,-0.08600839063741693,-0.06898247531534982,-0.05242573511020592,-0.03640188012897362,-0.017497404317187538,0.008323451009535493,0.04242635413684884,0.0820230428192877,0.12154351057930186,0.15594591800191338,0.18336983849453628,0.20543265763306032,0.22545716804461488,0.24606966658936436,0.26802652615076195,0.29084093399915567,0.31374930572747417,0.33570567649230243,0.3551915784769683,0.3707867813854468,0.3817942548499397,0.38796651372221336,0.38821646143653,0.37963493922575275,0.35816331822876657,0.320332561025068,0.2651614171867846,0.19568159889389025,0.11888316577376729,0.04359840853054106,-0.022266366358274406,-0.07404260879671115,-0.11208314848710389,-0.14169911695008233,-0.16977794964480974,-0.19982534018428333,-0.22944545149118017,-0.2525334693660934,-0.2642074873229898,-0.2639311040969927,-0.25489169953081575,-0.24139897709872551,-0.22670414310015938,-0.21279934076258078,-0.20118103199467294,-0.19250064701099284,-0.18566468618076487,-0.17796996094077494,-0.16649945648648437,-0.15019044214481686,-0.13104067934263983,-0.11283212402998077,-0.09860567735620868,-0.08912062694939459,-0.08256677671070016,-0.07561879853458851,-0.06561118954081421,-0.05228645614892828,-0.03797248799665678,-0.02639804204951917,-0.02064677734362047,-0.020918490069519145,-0.023561162767172343,-0.022111410077802002,-0.010627727865503363,0.011391905408147777,0.03697387390516941,0.05561855190649058,1
0.007675066248008105,0.008375676486066257,0.0018071773948600124,-0.014082375674346595,-0.03524381969797899,-0.05340589633978741,-0.0609458242150874,-0.05575792890559482,-0.04203079894607159,-0.02651542740424143,-0.014259318788764729,-0.006647317649861177,-0.0022220004713759665,0.0003908541344073979,0.00040712943801303296,-0.004222873641435608,-0.014748426754302525,-0.03041066212819119,-0.048405413438872905,-0.06529958402176092,-0.07937265050643459,-0.09178801614540442,-0.10501356744289209,-0.11986126412762839,-0.13397020621124373,-0.1425844255449787,-0.14105850033486583,-0.128517062038839,-0.11057029442488259,-0.09730713544536895,-0.09657456426123423,-0.10869594463172597,-0.12728135323085252,-0.1440441795373745,-0.15295099326114658,-0.15197672259278852,-0.1433053295261472,-0.13195100272714733,-0.12315518972144762,-0.12070645846541983,-0.12634971535915732,-0.13750109253334925,-0.14280465784244395,-0.11974377062519251,-0.0375888350037539,0.13479058333968902,0.4145288455261705,0.7821464930523456,1.163068162724214,1.4367975897180751,1.4836021682368943,1.2488614422137003,0.7846504058234707,0.23537075715737238,-0.22949848007190538,-0.4945873761958463,-0.5427670645459404,-0.4432408750061214,-0.2976887159402667,-0.1830650403388919,-0.12623997103512455,-0.11564710389816046,-0.12788596262356028,-0.14542727716789114,-0.15951288365304367,-0.16673911700560531,-0.16640796874982386,-0.15985698038070115,-0.15021780689215103,-0.14072131344103858,-0.13296757695461006,-0.12748437607568858,-0.12537885283978661,-0.12887405857455955,-0.1398521418652992,-0.15696097428264816,-0.17406819609270013,-0.18261653492157953,-0.1767635149545277,-0.15796315571728103,-0.1358262082041972,-0.12334330414778802,-0.1286334078855595,-0.14935830887215548,-0.17437372949519608,-0.1915090749168637,-0.19576052756714968,-0.19135618468654378,-0.18591984348180837,-0.18242803865119117,-0.1761087674555792,-0.15834001215151866,-0.12428993981654737,-0.07858256220255902,-0.03431146989224432,-0.005334006366872764,0.0028997272185249043,-0.0027007649122734456,-0.0076307094303128264,-2.0427921367242863e-05,0.02228652050319094,0.053103898560719565,0.08468672487606152,0.11389269329104137,0.14400303006939602,0.18086506036234068,0.2259666558615469,0.27289958569289735,0.31091060310369284,0.3325008952858786,0.33901088996037443,0.3401115027719635,0.3476056715773632,0.3677828590224507,0.3972018374024745,0.424373601961101,0.4360076720312037,0.42396188661092943,0.3886772073111388,0.33694456875915174,0.27628737394569247,0.21072057681455122,0.14085471942628236,0.06757869968106063,-0.0044728629776270845,-0.0676871817453978,-0.11625422149320297,-0.14997483308520593,-0.1738199502040247,-0.19418861183510275,-0.2140936927851872,-0.23092599368336186,-0.23959040885751814,-0.23780494250900397,-0.22792471334601155,-0.2146064478710445,-0.20183062004135613,-0.19170304569608262,-0.18446317653141395,-0.17882889309944477,-0.1730208661279444,-0.16600101774811815,-0.15748721911583233,-0.1470087116027809,-0.13415739685429376,-0.12007776540379865,-0.10764999036287153,-0.09979917240523975,-0.09768754627241555,-0.10007539057601403,-0.1036529315984479,-0.10346028755822781,-0.09436354617139325,-0.07457388662080372,-0.04804936529420281,-0.022380879773609193,-0.0040884708841902664,0.004730167053285005,0.0068002511293195345,0.0071381412725916235,0.009559329761633352,0.015055578057430498,1
-0.04897255191510593,-0.045042668217666434,-0.03500722044531693,-0.028138750607728035,-0.027931884052153324,-0.030240503473024878,-0.028069098739242074,-0.01831111380379983,-0.004165197134174067,0.007895227764279821,0.01278923579280454,0.00987922951309551,0.0032553218682350206,-0.0010501386079816303,0.0005306822535578824,0.006215554527250532,0.009965738848992179,0.005718685797303327,-0.008705437526962505,-0.03002811320444467,-0.05097535384871787,-0.06449074538473654,-0.06778410236641022,-0.0641561488925965,-0.06157220051833001,-0.06711958328141492,-0.0816247677393026,-0.10000854324381848,-0.1160479224784392,-0.12683321391205477,-0.13397717467933676,-0.14090920948606747,-0.14917561420380787,-0.15731892103031475,-0.16248434164423284,-0.16320805104160238,-0.16128447456563347,-0.1608627381894061,-0.16577431461223766,-0.17776082506073446,-0.19619633964116145,-0.2170342232436183,-0.22947068125987755,-0.2120934422967214,-0.13150280724423316,0.05186195184961128,0.36368463247685895,0.7834917643555364,1.222090392572108,1.5370610270778016,1.5918394532360642,1.3297432153327535,0.8165319467565052,0.21861098544541105,-0.27547961264999854,-0.5435583277014435,-0.5758683022242401,-0.4566439697586502,-0.3006460711866625,-0.1895861513409609,-0.14589353472431,-0.14813394236209868,-0.16400787668289993,-0.1739721515110912,-0.17537879634311293,-0.17396073422371897,-0.17407649147059212,-0.17458883493893612,-0.170963967614309,-0.16007393788911145,-0.14370669839518116,-0.12848547300357652,-0.1219240841536385,-0.12733843574609865,-0.14168783758359962,-0.15739845510901482,-0.1665728313767957,-0.1652063195030482,-0.15452552507346978,-0.13898357644221582,-0.1232096763873266,-0.11008790515044141,-0.10104769479171834,-0.09745078949895244,-0.100557256984511,-0.10981986261331886,-0.12186907308626786,-0.13169391819561366,-0.13509302278991733,-0.1307021405205093,-0.12056923534440861,-0.1087384306267867,-0.09796295566476937,-0.08707512516644231,-0.07245499804779941,-0.05220976306025317,-0.0280341135079055,-0.0036240735853699246,0.017361137642303435,0.032634748629467254,0.04306995756102229,0.05375792730501181,0.07174212592858879,0.10125810636406551,0.14050438645371807,0.18280564068875263,0.22084655308476883,0.25061958298254283,0.27313439100712167,0.29304740009603303,0.31462756343053944,0.3380597712423258,0.35934343308997063,0.3735811493709948,0.3783991282157046,0.3750809011239898,0.3669771287591491,0.3558365926962676,0.3392223170773344,0.3120783578449423,0.2705505213340078,0.21437130264797177,0.14685621168245436,0.07342520600083867,0.0003762539301823409,-0.06563344633439326,-0.11925483616398273,-0.15884795656958484,-0.18665786352565966,-0.20632089557285987,-0.21998949505711834,-0.22753180726196914,-0.22831653904920088,-0.22335674357016583,-0.21550460402031218,-0.20796595521668315,-0.20281478836448924,-0.2000610971815295,-0.19754105858287394,-0.19236589624701514,-0.18291084620184567,-0.16936484589595552,-0.15296543508402483,-0.13558875300457915,-0.11968217904675622,-0.1070374068157607,-0.09734077700344491,-0.08880020509514625,-0.07964176146853914,-0.06817138281478446,-0.0527962776853884,-0.03382480197354936,-0.015070167032155097,-0.00235036226576359,0.000681466036818925,-0.0038519384667385047,-0.008140868042834173,-0.003359868350524691,0.013627166411845002,0.03678271108043918,0.05455801599789045,0.05792795668022446,1
-0.0016354071735559218,-0.0033397484084194268,-0.005625455192065526,-0.00969114454403759,-0.013910332626923752,-0.01457308898704772,-0.008472953846073746,0.00401185019507108,0.018634825035127145,0.030225589737349144,0.03537884108547998,0.03326893824386408,0.025776377224758916,0.016606017342846918,0.008764909374638814,0.0027230825232573636,-0.003057419933349785,-0.010637523539666878,-0.021340576569072157,-0.03474563561843277,-0.04840192545441291,-0.05930126898670141,-0.06644238746462844,-0.07142639320625781,-0.07652309681591764,-0.08282312536250425,-0.08985366136773196,-0.09678321889066728,-0.10407594762614958,-0.11298316266400843,-0.12315149530412192,-0.13205800736590215,-0.13747272737348368,-0.1401698335704393,-0.14383323932915604,-0.1519091688350667,-0.16441120627574124,-0.1776134190466559,-0.1868550369506889,-0.19023018885063403,-0.19045028606007464,-0.1927051846334965,-0.1978024975998282,-0.19423850090604258,-0.15429626692353482,-0.03741401644229604,0.19487914144581187,0.551035688327959,0.9804326648679502,1.3678208740863047,1.5691065841718967,1.479003327978337,1.0943786879539585,0.5303090679992745,-0.029520802397032885,-0.4208633124899558,-0.571526395196055,-0.5185686280901639,-0.36713094136043944,-0.2231467450323378,-0.14394514756809532,-0.13091662309757,-0.15492584572715057,-0.1860461314826506,-0.20765241636501158,-0.21537473743231983,-0.210832822822144,-0.1971892794013846,-0.17799536888879913,-0.15747112898543275,-0.14011343063066253,-0.129241601612329,-0.1258818196246563,-0.12891259319339787,-0.13566293143926,-0.14266751494048915,-0.14715976144737283,-0.14828794045045005,-0.14667904437878382,-0.1432567156427424,-0.13863882053862872,-0.13325835155157598,-0.12802587594835577,-0.12451262076719408,-0.1238878728088809,-0.12571169500301127,-0.12800554589063157,-0.12867259016703347,-0.12678619600721489,-0.12261000104224,-0.11676192423660493,-0.1094545326703882,-0.10056748529474699,-0.08999135830132743,-0.07741213489303675,-0.06237025810060033,-0.04493762294581885,-0.025849243926803295,-0.0056927118040698485,0.01571911310435255,0.03914465748526429,0.06543035233059714,0.09464755641083936,0.12503473702509904,0.1534657994771246,0.1779107538285802,0.19976315436293227,0.2237466571132394,0.25475779860855446,0.2935483005959454,0.3352212928463821,0.3720547602609985,0.3979127839618233,0.41081822945742397,0.4122772754669326,0.4048594595580067,0.39030238608595896,0.36851141749080046,0.3376806440110233,0.29601823868998506,0.24349629197101536,0.18199399470867128,0.11469972086020166,0.04585089817137189,-0.01968771468903112,-0.0775483190872902,-0.1249294797183405,-0.16060097384234714,-0.1845317935459383,-0.19820456269473133,-0.20489917975749677,-0.20929748105409074,-0.21609473987450367,-0.22711337257915232,-0.23916202585227075,-0.24578258050163676,-0.2417353309816635,-0.22625653762447784,-0.2030631095589663,-0.17798301941606076,-0.15593087628575936,-0.13870917054725246,-0.1251848837609984,-0.1137665874712325,-0.1042297996506711,-0.096939592448828,-0.09131033730609381,-0.08573011887603477,-0.0784907348500529,-0.06827799682526522,-0.054481551774946985,-0.03815651218167682,-0.022515155248948128,-0.011613032474690602,-0.007947160567184811,-0.010543948211473853,-0.01511362477655833,-0.016674840541906027,-0.01263272992537344,-0.0039024159597664775,0.006489942856973147,0.01574901834425269,1
0.018597598982663346,0.0018980530402280598,-0.016360919699461816,-0.030185033273430736,-0.03501528829465633,-0.029606370104072466,-0.016148025344838453,0.0009505027104369196,0.016802504856412336,0.02806036428675441,0.03440379081029099,0.037728656537721034,0.03997250501871019,0.04195985487001731,0.04284644415543589,0.03990599572332589,0.03032765697624976,0.013935635548317674,-0.006731013385533527,-0.028764597907526942,-0.0500548180440588,-0.0686932748284654,-0.08279244988316732,-0.09103389048939944,-0.09338065972798733,-0.0917901154816824,-0.08962644415469215,-0.08970489125717633,-0.09320617208298129,-0.10006464533400543,-0.10938489947366163,-0.11948002178198408,-0.12844462821884792,-0.13533483303388194,-0.1406482587578094,-0.1455217645026659,-0.15068644192006284,-0.15592591588542296,-0.1598459646398326,-0.1604867689277366,-0.15780692987729464,-0.15577664661262522,-0.1584852256925019,-0.15997404436942655,-0.1366616337486837,-0.05080947831709243,0.13472056153101838,0.4336203532152153,0.8114171970068293,1.176388487308815,1.4034612709527485,1.387098555265967,1.0982415381435022,0.6111725508627325,0.07709872345936145,-0.3445598608223702,-0.5572583262049091,-0.5611316028028408,-0.4344631388155736,-0.27966074025229354,-0.16958654298737058,-0.12464219669780913,-0.1257506568562704,-0.14283705743770864,-0.15514441539154272,-0.1564232146535594,-0.15057572577720602,-0.14422707231494103,-0.1414225847272046,-0.14268996675984266,-0.14638851585224882,-0.14995503741281388,-0.15089557622406982,-0.14818709513545028,-0.14311337221807519,-0.13826235469097164,-0.135763271641596,-0.13605444367831412,-0.13759092265491976,-0.13760107223169957,-0.13303585869596235,-0.12167177984532626,-0.1041348249354742,-0.0856565634681305,-0.07494774525931824,-0.0793045816066788,-0.09920921066581528,-0.12710244737850654,-0.1513578706308096,-0.1626935248656634,-0.15862547105244992,-0.14295983128469056,-0.12189285116088112,-0.1003540761988381,-0.08048467613286027,-0.062269563797904576,-0.044955444226041676,-0.02804564318122103,-0.011366867063728636,0.005661179002759819,0.024532390552550357,0.047521095749124005,0.07671625778095635,0.11269901085866096,0.15405649681024,0.1973931706836905,0.23822293125287755,0.2733839925090056,0.302582198819414,0.32749100624703464,0.3499709867071099,0.37071369249175895,0.38879405512017334,0.4024991857185661,0.41046310315437906,0.4115524742054884,0.40383219349782634,0.38412083855112106,0.3487646043388109,0.2959260058657411,0.22821569707230596,0.1525749291710492,0.07721213304749183,0.00871792001565315,-0.04935816356334727,-0.0967301335951291,-0.1350063056623605,-0.16583745137829525,-0.1901599906045957,-0.2082678065734367,-0.22019396345781445,-0.22610764936927924,-0.22686343994262428,-0.22443471393640108,-0.22093283701607996,-0.21724119704555658,-0.21301767611803493,-0.2072006881333016,-0.1986057570242117,-0.18678889435211585,-0.17220673895132677,-0.15580711823001406,-0.13886096727673847,-0.12272429219835342,-0.10826101968435362,-0.09541579120609818,-0.0835600127832394,-0.07233451310788905,-0.06206339651635481,-0.053361848422534594,-0.04636226947635615,-0.04044123428504087,-0.0345253257504527,-0.02762396528399653,-0.019733456125215317,-0.012162999853376648,-0.006360667010461302,-0.002933001514051972,-0.0020877895603042228,-0.003912936971783659,-0.0077669690786568435,-0.011804400207507084,1
-0.010348593533925452,-0.01906846988346328,-0.02797867092571397,-0.035052840697763585,-0.03712198175297146,-0.031560310397447666,-0.01836170967457662,-0.0010460099219357305,0.014623383159905249,0.023909824542757592,0.026035581061699266,0.02413424964603674,0.022016725486854665,0.02081969382060001,0.018633845557246575,0.012637705091158247,0.001391068648735106,-0.014205971299882353,-0.03150232632664036,-0.04751220699595096,-0.06037441657582044,-0.0700671775525248,-0.07757840550634153,-0.0835068758990931,-0.08808762630523483,-0.09208936512619884,-0.09660071756687275,-0.10217470065333825,-0.10903350693921979,-0.1176360090376596,-0.1280068976274167,-0.13880621131318513,-0.1481471135144479,-0.1553412065612269,-0.16104009927840537,-0.16616703703562846,-0.1712242277299396,-0.17562009386048905,-0.17786300649099648,-0.1777942999012321,-0.17859582932950657,-0.18481090072780795,-0.19518351090359098,-0.19385120881543635,-0.14639349250729233,-0.006774692504473269,0.262080083899077,0.6581621121677139,1.1148610213274517,1.502763471010384,1.6734249874319893,1.5307316492483418,1.0900291964232438,0.4848425610092168,-0.0912666683590549,-0.4764848019428628,-0.6101916181656368,-0.5421845420438496,-0.3849094229651631,-0.24407138216892327,-0.17101800546946383,-0.15993237611717198,-0.177682849858328,-0.19517885099017135,-0.20053734962403388,-0.1957960203141235,-0.18788152339488184,-0.18202818015172886,-0.17985520410272499,-0.18021612709132434,-0.18074203718022022,-0.17929279104552395,-0.1751471688129981,-0.1691465088857232,-0.16287087389270544,-0.15797451001102616,-0.15535705364481558,-0.15441853674173187,-0.1538189972673187,-0.1528440475007593,-0.15146477838336236,-0.14969288621259105,-0.1475100770995419,-0.14486887619189395,-0.1417383869528517,-0.1386745413780682,-0.13671183550769767,-0.13619015178158425,-0.13609711353873563,-0.1345241877491502,-0.12975826584680616,-0.12127176974336981,-0.10965450872260112,-0.09581299137577036,-0.08026672276378666,-0.06271954876191536,-0.04242234361479588,-0.019275196964525763,0.005506458841294425,0.030414494021293544,0.05581192964876013,0.08378716989477203,0.11537036827951268,0.14956899736273044,0.18473084118416527,0.21932276256712052,0.2520368322199306,0.28221975722770826,0.3103331124501222,0.33750899436625464,0.36447977345500404,0.39128630298334316,0.4173726712404937,0.4408283652070288,0.45752280278749147,0.46173233166901734,0.448260734635363,0.4144317170202985,0.3611404985338666,0.2931150702743685,0.2175433388814419,0.14131736906527487,0.06924177570905919,0.0039022182221151586,-0.053604529765082995,-0.10271003861860303,-0.14315888308056862,-0.17528796511833403,-0.19997980708513638,-0.2184107116859889,-0.23155613038730324,-0.23972505881429143,-0.2427082999549622,-0.24051172424652695,-0.23432880677749232,-0.22676072767416966,-0.22017857525000367,-0.21446931464148136,-0.20702178903442253,-0.19527478018802744,-0.1792648572609283,-0.16203495899454204,-0.14745037196686572,-0.137004282256881,-0.12851409659386137,-0.11780824888241356,-0.10208666956954145,-0.08247559241921482,-0.06344907718727305,-0.04944758687811227,-0.041763119976436405,-0.03850011998767064,-0.03701049451702859,-0.03555400367173585,-0.03310268571538824,-0.028883666579687627,-0.022343112205906242,-0.013290015424211692,-0.002434332256435308,0.008020454038870271,0.015144887766592174,0.017712483406282724,1
0.0004503052918805122,0.001101036868145128,-0.002192539756560568,-0.008594932558386949,-0.01399539218832326,-0.014122983543565257,-0.007737345649204263,0.0027490009939468143,0.012844092691886856,0.018363907125457893,0.01776508118888575,0.013094342024675047,0.007937949418677733,0.003840095610334586,-0.0005477400562100784,-0.007164001177254195,-0.016579830925866842,-0.027961192010615084,-0.040025294541400504,-0.05174146870170669,-0.0625815066272526,-0.07273294386153852,-0.08287421488846113,-0.09343543822301696,-0.10406384527732918,-0.11367516453025144,-0.12108193818846827,-0.12572269099606043,-0.12807015261121565,-0.12963777042571317,-0.13224449511583622,-0.13683902855236513,-0.14320567326711464,-0.15076575438226197,-0.15879429368353706,-0.16565573646836276,-0.16907508303596466,-0.1677249360302569,-0.16240677073939214,-0.15654958921140016,-0.15550746960152464,-0.16261216159650183,-0.17197651166845587,-0.1621393006347196,-0.0963917211862841,0.06685948052235459,0.3535964227959107,0.7472999347954677,1.169863120565034,1.4920730073411756,1.5817392014086287,1.3702683849424855,0.8997190730531316,0.3153248847154765,-0.19998542682475748,-0.511065155055581,-0.5848568762557533,-0.4863042578257718,-0.3261344496285288,-0.19715184766610477,-0.13726567119959193,-0.13427046917949353,-0.1561238797894705,-0.17762389589407146,-0.18889889823662753,-0.19090339762785025,-0.18815382282045956,-0.18407849891604233,-0.17991962895479163,-0.17584666064025464,-0.17201185933232233,-0.16864355868001513,-0.16592657596353905,-0.16400694775575514,-0.16285682422823555,-0.16195066488293747,-0.16020593744030637,-0.15665043489894648,-0.1513345531571851,-0.14552527654242622,-0.14085963902442958,-0.13833866126672914,-0.13810671841289254,-0.13956461183120972,-0.14138440061563096,-0.14184118445013477,-0.13969994556557336,-0.13488003694520753,-0.12805606089159627,-0.12021107280148008,-0.1124428840811926,-0.10498329804984033,-0.09665754107720072,-0.08593045463201247,-0.07212139578822196,-0.05578275009050485,-0.038307807911496156,-0.02066840023173592,-0.0023181689373437953,0.018177917496362828,0.04175750757575781,0.06860664721302759,0.09889708032361925,0.13293822511400655,0.1698599378999487,0.20695525002319706,0.24148303135951574,0.2723210163767948,0.2995974204146508,0.32415810500484077,0.3472993343667332,0.36965642624673417,0.3904114806239363,0.4076846879457106,0.4189447726426609,0.4215225272469529,0.4137670142341624,0.39530798294470854,0.36574305415420943,0.32382667586811076,0.26871178341246493,0.2022955948788626,0.12976861315434846,0.05703931992807617,-0.011523735358690099,-0.0726614160909107,-0.12390589636985254,-0.1646889252104197,-0.19616850730842933,-0.21948646985408088,-0.2352177531082325,-0.2438762844189465,-0.2460538149703162,-0.24285921255535048,-0.23633051811246472,-0.22864515309199865,-0.22083867021304068,-0.21258760263382248,-0.20323564200796,-0.19250727399418585,-0.18026980889281105,-0.16670486840845553,-0.1530031442089077,-0.14102557117879777,-0.13191983261878745,-0.12529676654416425,-0.11956632963305888,-0.11269529637397478,-0.10315224731313269,-0.09081359194177475,-0.07679004243013446,-0.06257914465271643,-0.04970270347923981,-0.0392458640564954,-0.03130063954155118,-0.025163494939142005,-0.019869949847848976,-0.014566898252904553,-0.008331592495565598,-1.377837720636238e-05,0.010714528409029558,0.022485891405017878,1
-0.04351868790928262,-0.02918888528478496,-0.018470123897841542,-0.01847941839341979,-0.028228008644126328,-0.03839615833734424,-0.0385974769386665,-0.025535250007494518,-0.005193965463213808,0.01203064472446426,0.01897658559692039,0.015903514277352766,0.008173541947445075,0.0007208457148430419,-0.004556925162624868,-0.007081071627779141,-0.00570009063251102,0.00022669922918117699,0.008169570537076318,0.012285139645191836,0.0071653157157317935,-0.007729598415202951,-0.026653296702779324,-0.04090003737886991,-0.04496411744013659,-0.040177412313464216,-0.032623927177603484,-0.028038983830212805,-0.02856616300555712,-0.03312998570893139,-0.03990642148507999,-0.048258002580902466,-0.058349336532036805,-0.06939824733745271,-0.07876686713471985,-0.0826535515214926,-0.07836765557226022,-0.06727486611427619,-0.055356325354552476,-0.05042130356883137,-0.05882372493866912,-0.08147612101795344,-0.10808580582710206,-0.11465689382946095,-0.06797943280735162,0.06468246561162762,0.3005580838735339,0.620996070777592,0.9569113039837099,1.1997047720483724,1.2434329628071246,1.0384439505340035,0.6257687376058791,0.12827466536773413,-0.30314968448460033,-0.5586333664837304,-0.6122443007854727,-0.5176984686004228,-0.36570646796518735,-0.23261022822561633,-0.15182191092680364,-0.1185030446693277,-0.11224925073335426,-0.11585702101842232,-0.12105684916811471,-0.1263806849326103,-0.13399272107521082,-0.14657873110094322,-0.16430134831611695,-0.18395392641429736,-0.2005383823683182,-0.20921004254629402,-0.20710497161359204,-0.19495469729478446,-0.17682884429861398,-0.1575932839516474,-0.14035238819700957,-0.12584552132289578,-0.11389770542521321,-0.10554056059083834,-0.10310910484839675,-0.10745651956010965,-0.11564950917692951,-0.12237681048505264,-0.1236769761844408,-0.11930171718215081,-0.11190384262571752,-0.10430978378800536,-0.0975726522693895,-0.09078089384974522,-0.08198043402915801,-0.07005681967909147,-0.056523343650980384,-0.044839920085596514,-0.03742886686871498,-0.03354083487070064,-0.02982261902121437,-0.022505739985518445,-0.009048112597021072,0.01159792032580513,0.0393297184271904,0.07335324400710933,0.11251193185434022,0.1549953131921048,0.1972199864121292,0.23321471225541476,0.2572222649992355,0.26840453443068,0.2721774446510995,0.27654535212038744,0.2873419900758536,0.3057394783840019,0.32880169430113626,0.35200758081035205,0.3716401786848338,0.38568811402089626,0.39276199195352,0.3899893412204669,0.37252453414909537,0.3358808815529371,0.27926576488826255,0.20685515042685387,0.1262910252290197,0.04625275844209748,-0.02622273779166069,-0.08739176387337658,-0.13559017241211713,-0.16979753395504565,-0.1904745958663283,-0.20042466002496762,-0.20401609025617842,-0.2057063320900217,-0.20852580173990148,-0.21307985140225483,-0.21789380753657828,-0.2208535316497991,-0.22063734470107135,-0.21708387406637436,-0.21087195126667263,-0.203259675111018,-0.195124307047645,-0.18591723465390347,-0.17440310323537464,-0.16028699537975757,-0.14440697010623665,-0.12781872558317625,-0.11152442966219944,-0.09643641749889041,-0.08297654930960771,-0.07131462882930836,-0.06177713150155371,-0.05414204094165756,-0.04710671226823809,-0.03941994810920994,-0.030958291039151167,-0.021998333367147502,-0.012219270538507361,-0.0011195275057137612,0.011167594003636722,0.02382973792654825,0.03538355335809014,0.04359068932655091,1
-0.006449167635529061,-0.013425057266951113,-0.024136878226224713,-0.03547373703743574,-0.04289479934985711,-0.042790358776716976,-0.034472466507088385,-0.02044187756404033,-0.004766714939302601,0.008629018617981283,0.016966728306007237,0.019716653772544217,0.01907040358539601,0.018037583006159645,0.017741760432024998,0.01710833608041076,0.014425360885520273,0.008196779160212308,-0.0028660219776388395,-0.01919352317615698,-0.03915594624580119,-0.05898956400740807,-0.07460648812058189,-0.08385118174553984,-0.08727942324182152,-0.08759469767236394,-0.08845749475590182,-0.09253592588092437,-0.09999228811473272,-0.10925821477089144,-0.11888256879907587,-0.1278141318034095,-0.13516100496546601,-0.14090534667029456,-0.14559243536286545,-0.1487839567670986,-0.14861000686949563,-0.14307432750655416,-0.13208988710878308,-0.11858705543293384,-0.10797473311096832,-0.10564075001576828,-0.11127069369767058,-0.11196781983755204,-0.08050432156241946,0.017650507422723775,0.21086031087220627,0.5038896629040847,0.8594212338878803,1.1910005740082859,1.383616914752221,1.3416485244824095,1.0413775077790959,0.5562471025009716,0.03327785080350819,-0.37282021265132,-0.5703132713211903,-0.563404745951342,-0.4325327750858633,-0.2800662112881406,-0.1765331547409093,-0.13850936460879715,-0.14376634470524863,-0.16157715632337488,-0.1730932637944328,-0.1743166214516183,-0.1691724104928093,-0.16246272624674155,-0.15690590447875546,-0.15326062664769857,-0.15145207992021903,-0.15173996691984382,-0.15477002789086478,-0.16006407215224322,-0.16519914086635026,-0.16695019291384708,-0.1630582386457818,-0.15339630811879454,-0.13991214875465957,-0.1256289496429835,-0.1136587477192498,-0.10637239724312891,-0.10452922225673893,-0.10694593991582119,-0.11131011172984516,-0.11559179052453887,-0.11864429282874184,-0.11955188429972059,-0.1172987204313547,-0.11156186073899138,-0.1032566972070162,-0.09412485821151848,-0.08573201751234594,-0.07855731747790029,-0.07204460250318942,-0.06513827107223175,-0.05646392841313598,-0.04457077697206677,-0.028602481936168395,-0.008877936100837112,0.013521264578244742,0.037826625914726325,0.06395736286675055,0.09213987943464538,0.12245407003056313,0.1545423025122179,0.1872491958365687,0.21877358136884853,0.24814581329602384,0.2758009925549006,0.30219767154845995,0.32692758598554716,0.3485857937677899,0.36521195889844615,0.37613097312740107,0.38273744058694503,0.3863518200536166,0.3858079797458591,0.37733995841295564,0.3567378119172431,0.32189326831833703,0.2736378280723142,0.21481577414170858,0.14925651649236943,0.08160454928599893,0.01681916650318426,-0.041290200776352384,-0.09099250910322146,-0.13227657530832865,-0.16605582100313826,-0.19345739083730204,-0.2150972551987561,-0.23094336078825006,-0.24104513463952493,-0.24595422833062486,-0.24640172430008248,-0.2428429177693438,-0.23532791414567467,-0.22424320922496527,-0.21110581816647633,-0.19795229907279374,-0.18615661909717574,-0.17579862771534255,-0.16562562359769456,-0.15411109647364227,-0.14102057115336417,-0.12772301060659735,-0.11580800005850167,-0.10539104084421906,-0.09498493319677186,-0.08290310340908584,-0.06850790988231134,-0.05264734961328982,-0.037332395212677755,-0.024614006762144067,-0.015639121230586868,-0.010583351836927643,-0.00859730579223971,-0.0074942704843687265,-0.004423817378804318,0.00217345900803596,0.01146859837287641,1
-0.0030251757297087506,-0.014878514727118208,-0.026335942752484857,-0.03512286545940812,-0.038598335239320464,-0.03433706426046956,-0.022449235023010092,-0.006931487043656003,0.00620588962530709,0.012410720035366005,0.011007309772952176,0.005246497773683418,2.0879017302889713e-05,-0.0009779506287418901,0.003051832179267855,0.00983014393355923,0.015187567450705004,0.015013721138132562,0.007075094646162846,-0.008129173642854797,-0.02777955479951547,-0.04773915796593533,-0.0636089646655694,-0.07191354634896606,-0.07178744086140239,-0.06642051733894323,-0.06196108159558609,-0.06385676284951157,-0.0737416472831005,-0.08897600492012436,-0.10463796108845332,-0.11647207390504169,-0.1229473995339164,-0.125506436942654,-0.12717771276625095,-0.13019472919738953,-0.13379197340344934,-0.13397333981053727,-0.12622597695543375,-0.11007699117631156,-0.09209205736089401,-0.08248343191855104,-0.08475630641622826,-0.08592016307750511,-0.056211343327565694,0.03954536401936343,0.2240390217256878,0.4900669711775309,0.7894162298195839,1.036275100120444,1.1338360904446132,1.0189561215503435,0.7015138998201569,0.27191731543828784,-0.13408113330419288,-0.397722128130907,-0.4713384459444263,-0.39232553767488,-0.2504759356113443,-0.1321520320749982,-0.07845429085947372,-0.08063491989271808,-0.10601778290202837,-0.1275436187370293,-0.13589293873510833,-0.13463897459382587,-0.13067128449549342,-0.12812412055667077,-0.12744117183683643,-0.12733612330720775,-0.12668930746673476,-0.12539258228413586,-0.12408402647098872,-0.12331079994149345,-0.12308119507021983,-0.12294274965073763,-0.12250144204670649,-0.12204097932033066,-0.12215883303854551,-0.1228706051422244,-0.12374536936550029,-0.12434564745343875,-0.12412412694198663,-0.12259886719356883,-0.11944885495233258,-0.11414697419554565,-0.10655978739942801,-0.09813078671022453,-0.09139474958824993,-0.08844873244702511,-0.08990832017207792,-0.09397653879083492,-0.09659275243698327,-0.09387483925566281,-0.08458317626284652,-0.07000330936791228,-0.05233159551728665,-0.03372468569501573,-0.01585948005733498,0.0006718559773013291,0.016798913986401598,0.034814215010230576,0.05684956875548911,0.08307427270947562,0.11232781417733784,0.14373729144602762,0.17638494653947398,0.20844364002023572,0.2378795548592939,0.2639453328224878,0.2875912271344708,0.3100532827106251,0.33120620762093206,0.34956219366820585,0.3630787654532253,0.3697480973251412,0.36864251223506744,0.36045602171484986,0.34584095666846,0.32326263438994396,0.28975756359343585,0.2441808973899315,0.18896028521985814,0.12864646057132864,0.0674195303670228,0.0079081127454955,-0.04825100827119021,-0.09914395261760896,-0.14233104340235114,-0.17612553333229086,-0.2004846484156771,-0.21633503666918422,-0.22481711268533716,-0.22742663788328754,-0.2261173365303083,-0.2229104147736143,-0.21938754167214017,-0.2159427540850704,-0.21117041422978133,-0.2025815232972531,-0.188757358657451,-0.171141051981941,-0.15329779593292295,-0.13820480568684465,-0.12643137291371728,-0.11647132609224888,-0.10644562446443985,-0.09572672866896964,-0.08523095954024151,-0.07660575387308104,-0.07074226767011121,-0.06609373846412303,-0.05930064764650779,-0.04845581413658889,-0.0346917375507189,-0.020358190762627962,-0.00706686577058192,0.004516158083957021,0.014096956829678334,0.021186109389850518,0.025206063988489145,0.026495921215336088,1
-0.0059277057136519744,-0.01351676586006841,-0.026561538897254173,-0.04198058502834087,-0.05416336547905133,-0.05717779546609666,-0.04797694955251279,-0.0286767116792725,-0.00578898470214509,0.013160875123872536,0.023410729232516345,0.024617134416952693,0.019788374855995543,0.013288209828121716,0.008723539648538257,0.006924160920810406,0.005926112383164099,0.0031219106259788047,-0.003206261589638157,-0.01394299800831569,-0.02934882512955124,-0.0486990896798731,-0.06930777739678529,-0.0862354197445896,-0.09495893191870919,-0.09500786053106253,-0.09022617642137253,-0.08612419381907109,-0.08705199058418873,-0.09433774286319987,-0.1063446658773929,-0.12015387775681205,-0.13305607718975693,-0.14338581432825862,-0.15114509727907552,-0.1573244351516073,-0.1620911318528458,-0.16475229122731877,-0.1656610950087353,-0.16736199633934795,-0.1739573096052842,-0.18859639374487333,-0.20850557735505848,-0.21884770189789168,-0.18983393274437405,-0.08116576950290201,0.14431276987991656,0.49686796642807024,0.932710357512303,1.3443334971678909,1.5891798704115117,1.5526074458054804,1.2122782894384643,0.6626553922228628,0.07811481676214373,-0.3679358682498676,-0.5805552295523992,-0.5732698521896858,-0.43873457924596426,-0.2853232501377483,-0.1827024224337032,-0.14583924326835973,-0.15378555039111008,-0.17758782707510284,-0.19699540759796122,-0.20388619867302113,-0.19918379816228657,-0.187823216869641,-0.17459505411971898,-0.16259186036900208,-0.15320457936956539,-0.14666331790745177,-0.14281352516620824,-0.14143284557943792,-0.1425647609327873,-0.14638788360899266,-0.15169252970676925,-0.15547997945895448,-0.15517026774115722,-0.15076133881074447,-0.14465498244935018,-0.13933079621281824,-0.13508326370558105,-0.13034334303695938,-0.12418541956423018,-0.11813367662405969,-0.11512848597599538,-0.11626334011912552,-0.11866381539411171,-0.11709216186990623,-0.10753615847693708,-0.08964048262077379,-0.0672073025029973,-0.04668400864947307,-0.03349166346738511,-0.028202332168143714,-0.025969772032483945,-0.019821094625888158,-0.004846932317259894,0.019176552663314115,0.04777550592453226,0.07464427030321674,0.09555573817998249,0.11078482468403256,0.12481061891142235,0.14326639402346167,0.16885127996835247,0.19922590498302847,0.22844149846053924,0.2511636091013748,0.26664650009594776,0.2786476411459691,0.2916290917549946,0.3069750898195951,0.3222456245266895,0.33403323553718955,0.34107375473200624,0.34404052981221983,0.34278872312046693,0.33406189340241227,0.3119645980391317,0.27143463286098407,0.21232879181758094,0.14065436340445509,0.06569980813604848,-0.0040167386073431885,-0.06311299022330001,-0.10987393812934927,-0.14523657229358417,-0.17127504963156964,-0.19047004788322797,-0.2052576495517891,-0.2168703828017694,-0.22442621364060458,-0.22594760215806928,-0.2207209243801127,-0.21063965063862422,-0.19927691615151666,-0.18977932408568549,-0.18325374230118396,-0.17842587237374147,-0.17273694796993733,-0.16430032311749043,-0.15323917243855814,-0.14100961184410685,-0.12833593802873797,-0.11431352146936781,-0.09808057363122687,-0.08113169318948252,-0.06700390901335741,-0.058248821731858386,-0.0539017655942904,-0.04967487922237673,-0.04072477181930652,-0.025352817158678355,-0.006817976153104192,0.00856730194301852,0.01574495582229121,0.014565857652005562,0.009919885869313201,0.00796173677689763,0.01179958440868259,1
0.010715495287376437,-0.0021966322796034368,-0.015804659769507377,-0.02852107019476852,-0.038287223442082026,-0.042237141444321294,-0.03792945019579734,-0.025454036855524238,-0.008510990340515038,0.006394342241236046,0.013291835390786537,0.010950311168144052,0.003327348253723289,-0.004269258668151811,-0.008866087471423173,-0.010859242219813313,-0.013152151506136009,-0.019247782007833066,-0.03120529739942923,-0.04854127205882625,-0.06843343091405929,-0.08727626352197669,-0.1024077096431292,-0.11239754985822321,-0.11694107088475088,-0.11732025466886305,-0.11582519026765006,-0.11414942156418394,-0.11284190486599949,-0.11212959190609126,-0.1127017058103524,-0.11563097468569442,-0.12184959343573679,-0.13145102692265032,-0.14299852637497995,-0.15390697103475648,-0.1617160209318767,-0.164906454167781,-0.16325787263937808,-0.15822787599620566,-0.15315068523033024,-0.15144300426749777,-0.1511607585348624,-0.13938026699732092,-0.09091102880249524,0.028621093519619913,0.25238797798395984,0.5891518379045865,0.9953757473969377,1.3664546176800876,1.565929514563567,1.4872801441740597,1.1168354328069765,0.5563796814234404,-0.017121465724898907,-0.4348831910982156,-0.6122280323675608,-0.574209586559039,-0.421797204048431,-0.2656164101330618,-0.1714449636934024,-0.1468449741531703,-0.16419347762027195,-0.19175816373427304,-0.21030843276075425,-0.21437856244777542,-0.20727848334763407,-0.19521096016214678,-0.18284304789833614,-0.17228946764845995,-0.16455917531635295,-0.16036227300648398,-0.15926682875933423,-0.15860410191344174,-0.15418428092799571,-0.14346269290261754,-0.12841834142626868,-0.11500959149559425,-0.10960328825128736,-0.11521321439844882,-0.12989619737369887,-0.14764781852481673,-0.16090625863048846,-0.16412669300589144,-0.15668993487540842,-0.14230371268281644,-0.12604580956628322,-0.11232056275779209,-0.10361327781194613,-0.09962401336620104,-0.09762083040521236,-0.0940147973124153,-0.08675357826853382,-0.07655464570102816,-0.06528265696688425,-0.053560744111184166,-0.04019821107494126,-0.02342830369219329,-0.002342111110777853,0.022858745276422884,0.05117712868669837,0.0807568606362437,0.10927808929356746,0.1355324267495224,0.160755768214293,0.1877181440240006,0.218156203218156,0.2510308894289408,0.2828064026381981,0.309158898367812,0.3269850520829854,0.33604251138982794,0.33945287589832895,0.34185737004885997,0.34619581006560946,0.35219202049153026,0.35689787125887723,0.35552571778020825,0.34291593354803296,0.31577229589542405,0.27397866941540705,0.22031952055349224,0.1590446425307808,0.094284580299007,0.029605019195122012,-0.03164408882198616,-0.08652732236628131,-0.13309720831615424,-0.17055665866468384,-0.19910711971962822,-0.21955651567085183,-0.23291008105126765,-0.24020367440576326,-0.242231022527697,-0.23941098860050064,-0.23229230669069725,-0.22205378448085117,-0.21013962697468042,-0.19765164315264702,-0.18546173952554115,-0.17419006885932795,-0.16372943136757753,-0.15345655178745649,-0.142624722762307,-0.13056844864736256,-0.11728560020267575,-0.10334084480826226,-0.08924053730092879,-0.07562626987825165,-0.06322206286642026,-0.05203746416577,-0.04159956209228627,-0.03192754442351589,-0.02336049401651817,-0.015909927234228564,-0.009329165459616377,-0.003257228926300988,0.002856810708133539,0.009378930397820822,0.015715041632692977,0.020484456576152596,0.02296816824098686,1
0.0016385535277746947,-0.00850894096893948,-0.018879913639529584,-0.027929621136014205,-0.03339504758996888,-0.0325385312722937,-0.02403361800737587,-0.009818103927410022,0.005039748415090559,0.014985735653646425,0.017396406319148596,0.013922207867618944,0.009004345727064308,0.007053326236912566,0.009702227020029743,0.014516364483517877,0.016462605348721952,0.011451981558659816,-0.0008648079607665466,-0.017565811334349087,-0.03504879461497547,-0.05050923022870633,-0.06202832284724077,-0.06880189981541705,-0.07137179438548343,-0.07138072844352283,-0.07123109424523875,-0.07330739976731944,-0.07867364640100465,-0.08682915786790117,-0.09652468822633618,-0.1059518570552849,-0.11312735525626663,-0.11749111228047796,-0.12054673577661601,-0.1241323213406308,-0.12829303946055512,-0.13113387997774137,-0.13066552102742665,-0.12704389821597037,-0.1238193457170262,-0.12638044560462056,-0.1358479566716051,-0.14089741937341,-0.11446736619849297,-0.020197015075352744,0.17177750372434106,0.4627690229928114,0.806062115406389,1.1069301941514407,1.2531902040923435,1.166114563897573,0.8453811447941437,0.3807238934734102,-0.08308559899000385,-0.4124585699034131,-0.54327973096683,-0.4983885023325674,-0.35976524680267397,-0.21719503480237187,-0.1256231614022667,-0.0931900538381476,-0.09794974311192818,-0.11328127681749796,-0.12361685919702833,-0.12604915009370937,-0.12388460855246029,-0.12051475280548797,-0.11776625422997854,-0.11650420346637627,-0.11678435022564011,-0.11803813341122711,-0.11954951049240703,-0.12064115181559129,-0.12056610087088203,-0.11836890847566399,-0.11364505322158375,-0.10791495604097838,-0.10415562436054453,-0.10452028854276046,-0.10900445288987144,-0.11551751553980932,-0.12073426481125363,-0.1221746299476675,-0.12003246844477244,-0.11664001897234036,-0.11431219594934673,-0.11366528459478203,-0.11345992813306488,-0.11153900663339833,-0.10623479514477803,-0.09759279512198693,-0.0871365180499902,-0.07626717299305322,-0.06505348374781031,-0.05240226485294007,-0.03718837435622295,-0.019228550406971343,0.0007805226998635478,0.022082056794030303,0.04421774835253238,0.06685796858895982,0.09017419244246601,0.11493495952127698,0.14148784934410596,0.16913301686083693,0.19660964426604324,0.22282233058515782,0.24708033299736953,0.26891414341327463,0.2878442107523553,0.3031458904358006,0.3141840154667777,0.3211176686822275,0.3246658438777892,0.3254266630966244,0.3233166118134425,0.3167151490749244,0.302389929309163,0.27690345472499533,0.238626776169678,0.18912995478375683,0.1324458872751798,0.07292397403109904,0.014510781601493689,-0.03893182395259068,-0.08473518110548567,-0.12255655188677916,-0.15312370733197606,-0.17670929996267426,-0.19351426940028832,-0.204118266223877,-0.20924451862208174,-0.2097997944425843,-0.20655508457209493,-0.199975359633073,-0.19128129619611783,-0.1828399384196266,-0.17650563577740558,-0.17206302984198496,-0.1676293599789504,-0.1609595102783224,-0.1502990374370853,-0.1350794430097577,-0.11661036420338168,-0.09794266006190538,-0.08243295885052662,-0.07167345374274464,-0.06469628496672719,-0.059280336726965255,-0.05342471808237363,-0.04594286983224292,-0.036805536453980055,-0.02676307308726436,-0.016716296543763217,-0.007824241477763321,-0.001188315686356401,0.002961189413268471,0.0054599782087673375,0.007983319109009731,0.0123125573537511,0.019208538287336364,1
-0.019475619523101815,-0.043499734002446104,-0.06447775698651541,-0.07510324027756182,-0.07120176036955647,-0.053857486398104004,-0.029188980776429566,-0.005246807336050062,0.011922469683335702,0.02019888516991421,0.021007748826931787,0.018049933277375932,0.015720050299395043,0.016884278562484485,0.020815423301348186,0.023465139843555104,0.02046741084575491,0.01004367528197635,-0.006362082978457036,-0.024982691248639277,-0.041486312417374736,-0.0532716481780811,-0.06075493442041857,-0.06692167912618958,-0.07596455947198623,-0.09111263548830682,-0.11167655147625775,-0.13187509900417552,-0.14392892400017862,-0.1433117194882261,-0.1318303279391712,-0.11689868739257922,-0.10783790443806807,-0.11069470286358235,-0.12465250811278143,-0.1431854903110736,-0.15888367611603227,-0.16800907155125985,-0.17212223779934407,-0.1764471307252121,-0.18666650203756224,-0.20505239061040467,-0.22578062473069588,-0.2313496193668983,-0.19207049075980667,-0.06981111943612131,0.17044166701419491,0.537412110472147,0.9847570958203059,1.3999990758649035,1.6353533893351788,1.5756162796582454,1.2056368882673547,0.6324163901168218,0.040783215653460846,-0.3944753704076399,-0.586734409980755,-0.5618514275061932,-0.4212254835936763,-0.27385042183650754,-0.18327589625357188,-0.15679553259489232,-0.1687835521876504,-0.18992106540931852,-0.20270154094917156,-0.20314890438011338,-0.1959512805167792,-0.18777811266396563,-0.18231315809843088,-0.17931387477503,-0.1767749041156149,-0.17315281233714494,-0.1679682535836589,-0.16174203499975098,-0.15569263582079382,-0.15070690194293218,-0.14681495273176015,-0.1438493598906111,-0.1419657915983018,-0.14118648761721095,-0.14073700893515048,-0.1394014982830678,-0.13621022024404691,-0.1306101973001627,-0.12299780122239515,-0.1148393224815325,-0.10750075020708436,-0.10169007153745879,-0.0978314683310122,-0.0956465582102175,-0.09364734324941155,-0.09001473129056359,-0.08366744418211458,-0.0741438793583393,-0.061112733912170404,-0.04474161147745087,-0.02641852124719946,-0.008065904032939799,0.009560676561578874,0.02737048580151351,0.04701583435133129,0.06974096398530438,0.09570952501813007,0.12413195344055393,0.15385894373184716,0.18362146943307173,0.21210811379243164,0.23845137753262405,0.2622450562863765,0.2830306269208192,0.3005672677267318,0.31533333451963325,0.3280578066185959,0.33904445946407064,0.347853280684958,0.35264376299173783,0.35012776218729585,0.3371863051656766,0.3120991591602066,0.27453089099229855,0.22611133078464196,0.1709279117571892,0.11408787151264516,0.059239355789483736,0.007489490713532242,-0.041059807024411366,-0.08532716839566236,-0.12336310821409352,-0.1537536297548157,-0.17646205610584476,-0.19256183396458998,-0.20334172458777375,-0.2096688743609345,-0.21183570491081558,-0.2097565970649333,-0.20395149925366465,-0.19644451473451802,-0.18977080455492357,-0.18502626346574302,-0.18116390201052898,-0.17562030313744517,-0.1658514397931727,-0.15131408943941158,-0.1338348190895143,-0.1158824851037722,-0.0993240002240321,-0.08558495458199365,-0.07544914362652869,-0.06840859419822179,-0.06307689879584984,-0.058019709005248846,-0.05180009109363247,-0.043057225247440434,-0.03139741031535894,-0.018283329754034346,-0.006501219864994075,0.0016106383498797894,0.00572942037042827,0.007983293322165075,0.011292577801645838,0.016550854481182396,0.02217394964118765,1
0.007865125701468143,0.011400869441076015,0.012523703365930141,0.0022136991102459772,-0.022615423220101204,-0.054847133401643405,-0.07927169183773314,-0.08085472700135989,-0.05467178176262501,-0.009762534206601363,0.036433542689877196,0.06792806251313868,0.0775888947930166,0.06884386388194386,0.05140327861481077,0.03424547002091815,0.020958169415013175,0.010019879714606977,-0.0017286056531341414,-0.015923760342141973,-0.031740678510451,-0.04702351886432445,-0.060004666804751174,-0.07015570639388509,-0.07809679161131658,-0.08503208137142673,-0.0918132409110944,-0.09820787880445377,-0.1033094033137956,-0.10698508110558243,-0.1106415109476766,-0.11609502078472406,-0.12402019197136553,-0.1337529746590236,-0.14399264329546263,-0.15309558271550214,-0.1591995765267458,-0.16118793768164258,-0.15933856761191512,-0.154633211878151,-0.14902770588240913,-0.1466670878160084,-0.15067998506156502,-0.1546989347102859,-0.13661916079433778,-0.0606399021914661,0.11094764717467157,0.3956581675608687,0.7643478110839683,1.129139598147385,1.3647734432964311,1.3620329790795875,1.087490757674174,0.6127267714480307,0.08879297968340139,-0.32368975339782163,-0.5277784927319941,-0.5251417113757036,-0.3970115085736735,-0.2475586832088923,-0.1476973360160282,-0.11328179316527168,-0.12122437575781023,-0.1399606541953693,-0.15043655562349012,-0.14981025500133893,-0.14383407437968637,-0.1380851821952772,-0.13425315565184623,-0.13159482542820816,-0.129607696220825,-0.1286138798993821,-0.12902558957127058,-0.13069923419812904,-0.13248150281442136,-0.1327613090303196,-0.1308256948790484,-0.12761761951260076,-0.12520778555332893,-0.12503604548761696,-0.12655379631583458,-0.1279781239939164,-0.1281600489027062,-0.1272914765081901,-0.1259912832746015,-0.12449579185612031,-0.12282439035718697,-0.12074773700404762,-0.11749481125458976,-0.11237226233887852,-0.10577061140195104,-0.09892697294550798,-0.09248242213616048,-0.08589963953345643,-0.07826138878942701,-0.06877496515081183,-0.056808752077872414,-0.04213413891564599,-0.025015113126874638,-0.005798760404130347,0.015559189607319099,0.03914369475358411,0.06433876397903215,0.09002635887991753,0.11559653451166288,0.14150816440656447,0.16830876262191277,0.1950588238487164,0.21967432274653145,0.24088414377164075,0.25897027522513877,0.274553565074136,0.28741696989737797,0.29673001307292257,0.3017541823867886,0.30206590011419776,0.29724670832064565,0.28606597473182843,0.2662739450573948,0.23575539545287522,0.1938748144296799,0.14243294676228507,0.08566982433155784,0.028314090415305068,-0.026530151934352597,-0.07695226981011984,-0.12037362763797026,-0.1535982967725033,-0.1749721702158158,-0.1853897539286793,-0.18672969157405978,-0.1801509294018089,-0.16622252889779915,-0.14589597189677767,-0.12084617478965878,-0.09335262967868703,-0.06623745596929821,-0.04228489517216981,-0.023279945651445214,-0.009821632895122622,-0.0017829182082995743,0.001530817202269199,0.001420721954729645,-0.0007355109631135021,-0.004153277441430111,-0.008461390467682595,-0.013209045594004768,-0.017769616157761715,-0.021504840079486665,-0.02404762884500298,-0.025443173234027665,-0.026109799869474974,-0.02660811082001769,-0.027313733015744586,-0.028476827566422225,-0.030497668518595394,-0.03368985454151644,-0.03765758295491072,-0.04152328843516378,-0.04490253149360568,-0.047916745136906476,-0.05036453627104512,1
-0.006469319083725401,-0.00969957125457797,-0.017323756532594093,-0.02817127544195434,-0.03871335775157313,-0.04442178727309104,-0.041395327083011885,-0.02888320730374335,-0.011234753189954334,0.003766415761964079,0.00991686270809607,0.006936584082720383,0.0008070472217720989,-0.00035230716798982,0.007507746535016972,0.02086602489153007,0.030705452051285963,0.028024203260309057,0.009262962752905075,-0.021274066402332592,-0.0539361850870985,-0.07881189248478941,-0.08933432100837603,-0.0840693060189366,-0.06744392024582405,-0.04839337231383398,-0.03666412303859963,-0.038315481714191066,-0.05255035180464315,-0.07205673515558139,-0.08727721699777218,-0.09219429646758384,-0.08815582242331,-0.08266376523569212,-0.08322252288449021,-0.09146301221856466,-0.10243199766576891,-0.10859063759711186,-0.10549242353978432,-0.09595872605903075,-0.08968107695391535,-0.09693933560945053,-0.1185619202349633,-0.13864369537499796,-0.12592434801333852,-0.043263131612871694,0.13777356609380148,0.4181109842429475,0.7530597310226574,1.0503794650674185,1.1985300246001993,1.1180412785144098,0.8080519727686513,0.3569759270008436,-0.09455262248962214,-0.4184030622134683,-0.5531541963952806,-0.5191909633249633,-0.3915107197946017,-0.25183300730410135,-0.15127698438477083,-0.10171583363592376,-0.09023996599584394,-0.09819655964101684,-0.11194691300394208,-0.12453751290819462,-0.1325540869946034,-0.13335016710300135,-0.12603140899480142,-0.11338628936473394,-0.10046824766244809,-0.0914537659783126,-0.0886966581474805,-0.09320691538374211,-0.10410565119374568,-0.11806358589137872,-0.13035173950969683,-0.13674746622079373,-0.13535908666525992,-0.12821428504610322,-0.12084045481468296,-0.1183972575354785,-0.12119085556309916,-0.12425466708201699,-0.12194811627439894,-0.11336257576782875,-0.10348826517657776,-0.09870388948788805,-0.10051782034158938,-0.10374295565113753,-0.10063857962683868,-0.08715410367359841,-0.06619713359301221,-0.0452123806504315,-0.030500623984500295,-0.022998724512918206,-0.017897724742918626,-0.008396861616620687,0.008920878264290936,0.031731839026798825,0.05381975528925531,0.06941469147519275,0.07840133714084134,0.08848560710797465,0.11054208529587395,0.14989617494954469,0.2007949472726901,0.24874004690330292,0.28001014683218844,0.2917653754574387,0.29412024537345594,0.30245883872772333,0.3262249552112898,0.3622816918779185,0.3974174690026991,0.4171809727360178,0.41347329988709536,0.3863437108330802,0.3406938131069956,0.2815496184438319,0.21224865937088325,0.13579586165962382,0.056259237217946054,-0.020322236701475864,-0.08573020413636648,-0.13177827141449805,-0.1544671449260614,-0.15732286710409898,-0.15072022980015953,-0.14677544641861912,-0.15328111706494935,-0.17039187228225722,-0.19170397061001215,-0.2088772579496789,-0.2166391890479914,-0.21473487232430394,-0.20637263492746927,-0.19550493582597767,-0.18489465365316995,-0.17577485693862827,-0.16852281171855238,-0.16311017399479982,-0.15927488982124063,-0.15632227120029105,-0.1522400763372956,-0.14333177740051967,-0.12616491564475704,-0.10121132075629963,-0.07410604068863157,-0.052280082858046306,-0.0401233976586127,-0.03655519148612035,-0.036061080319120774,-0.03226323482780953,-0.021973019735745995,-0.007020657104669134,0.0075414523594106025,0.017331499425508507,0.021476006318099553,0.02236353794348916,0.023604884918411687,0.028176702400165104,1
-0.003106122455996117,-0.032310388964685896,-0.05389084654879869,-0.05783645243425213,-0.04101273683032832,-0.008565962571680767,0.028368708090183558,0.057465356791726395,0.06976500523413079,0.0625064505231408,0.040215002610841245,0.013312996905743774,-0.006642899416929632,-0.01275589510728337,-0.00540625706693691,0.009490276197897263,0.024178787066783565,0.03218176039765083,0.03001673219246671,0.017182690155772014,-0.004845675826552249,-0.03259721268689202,-0.05999852770150687,-0.08012760690314587,-0.08928300553545426,-0.08948675709617539,-0.08706899931757967,-0.08810044470410724,-0.09399948507553199,-0.10191628843764243,-0.1090825335591293,-0.11518721669438133,-0.1205373944903547,-0.1236526975388833,-0.12257933665076391,-0.11877963270603976,-0.11819060136980973,-0.12773522443800736,-0.15048496977133335,-0.18306194405709908,-0.21709230954040942,-0.24291255710921766,-0.2512980837415026,-0.23087654034907207,-0.16265318015045704,-0.01754060176379524,0.23387027189560314,0.5952694404554754,1.0149039081196485,1.3788975067163818,1.5470966252118457,1.422164948645428,1.0125860182047755,0.44335536449327745,-0.10090191620815027,-0.4660153715688822,-0.5948372746452433,-0.5341977765883611,-0.38689310791743287,-0.24681959997239933,-0.15987086398915196,-0.12619424185441877,-0.12571068408586475,-0.13944344551742177,-0.15662473412575717,-0.17366637905847077,-0.1911716999335939,-0.20985363666814727,-0.22500511875856538,-0.2237580083242276,-0.1922328545880424,-0.13068356311758844,-0.06201779004599566,-0.021414005014344956,-0.03291726572380739,-0.0923078926326989,-0.16951778260081468,-0.2271901807136279,-0.24136779426721217,-0.21137536039518423,-0.15490797386665564,-0.09513045842999585,-0.051107528489651985,-0.03596627567056834,-0.056897041308954566,-0.11125702594561204,-0.18190646304163058,-0.23950143270126792,-0.25526091066820167,-0.21815531972682128,-0.14386860096537704,-0.06717131340916019,-0.022098590104201146,-0.023531498307287742,-0.06029159970446806,-0.10155887802779057,-0.11404608507693753,-0.08180134729654667,-0.01594431010039156,0.052805517308866595,0.09413250641816773,0.09778133104844033,0.07969538271671353,0.07001683232809883,0.09165996501885068,0.14571297792563592,0.21442560728940094,0.2770683217971175,0.32249180759882917,0.3484887207324829,0.3546987712924599,0.3420860379720207,0.3207412430255995,0.31274765659469017,0.33898245763346135,0.3982132621579426,0.45936065418824884,0.47844388638172647,0.430249422450456,0.329387837368928,0.22123819098232061,0.14861635938146728,0.12099579884027825,0.11088103338525832,0.07887947275734417,0.005142614802645662,-0.09736796453195583,-0.19491795952834387,-0.25773237018735956,-0.2768746469163621,-0.263407935580219,-0.23623770151014015,-0.21012785946803086,-0.19069794533247011,-0.1769870027486412,-0.16805329504046845,-0.167759021137221,-0.1823855113390461,-0.21103316934507815,-0.23817418469816007,-0.2406692269432334,-0.20630153595213932,-0.14646075408461628,-0.0914651182005951,-0.07021891432912702,-0.08834417597045371,-0.12360289989697536,-0.14373470432613386,-0.13168140463212452,-0.09606251917867506,-0.05884208494081207,-0.03434943342743538,-0.019839486945567853,-0.004414259449752007,0.014556332159276212,0.026703852051333497,0.022350443956254285,0.007718847679594149,0.0018375268034456632,0.017526124314181497,0.04680700079292985,0.06561870697098242,1
-0.0009571701583086139,-0.011361495255097352,-0.02331050224188647,-0.032114085232981,-0.032871879631767686,-0.024094536104502656,-0.009296051872316876,0.004301963191099287,0.009738576751596041,0.005270357057894229,-0.0034750214549160306,-0.006813466900215388,0.0022522718645509015,0.02320357601973069,0.04810929734306757,0.0658374441371893,0.06752793896053373,0.050310146158856574,0.018062194675675887,-0.020427063486643672,-0.05515620117156133,-0.07916330014959579,-0.0908416152561203,-0.09305454635207648,-0.09069721357094174,-0.08826931603635384,-0.08815955971820168,-0.09071226473402696,-0.09555733018644413,-0.10206102361334851,-0.10898115997585289,-0.11528974335857597,-0.1217222833697824,-0.13035912968141292,-0.14193003992272937,-0.1539889464596714,-0.16179108621072913,-0.1607763976755437,-0.1500458567464542,-0.13578468565187723,-0.13001464601685156,-0.1412065681090796,-0.16161263119551067,-0.16186817767624198,-0.09871257618204955,0.06733936633195395,0.3498961038235425,0.7162192300738429,1.0806160707943104,1.324284754751578,1.3414082645574317,1.0936281705925495,0.6415566468424896,0.12650106643128856,-0.2936069800983248,-0.5167538832667227,-0.5355610845364605,-0.42346802314401555,-0.28214362499747553,-0.18525577598965265,-0.15215340925123008,-0.1606974663050173,-0.17869703164439465,-0.18632837769675542,-0.18007935135218295,-0.16571579958773086,-0.15037137923823407,-0.13842263677718447,-0.1306413189384039,-0.12543800961561158,-0.12107483274692082,-0.11697443035151864,-0.11354031984973346,-0.1112007279823092,-0.10964681656163597,-0.1084756147671556,-0.10850522296253366,-0.11136279495315929,-0.11745497102837353,-0.12447625685344699,-0.12797775911357845,-0.12410087566181918,-0.11259617529908775,-0.09794739790857214,-0.08714872650627155,-0.08474017513213236,-0.08979761091579168,-0.09783880219071944,-0.10432927764839353,-0.10650268659517582,-0.1037984825411498,-0.09736733888756088,-0.0884979507584431,-0.07727169001955873,-0.06329044467441762,-0.04737969162212216,-0.03129885545723187,-0.015833847953735502,-9.979462594969513e-06,0.018072741857424208,0.039760603482898824,0.0649102067419461,0.09246938028796145,0.12120390954526801,0.14952926269191133,0.17629937067268747,0.2023250145190491,0.2297561555067082,0.2597498864529446,0.2911374453975688,0.3207264387503922,0.34480475525569226,0.361369218257035,0.3715941394595804,0.3785752947691524,0.3837993392461423,0.3847793200767979,0.3755594642172941,0.3495080591620593,0.3034267077966182,0.24007466227856453,0.16688483032193005,0.09228270548779358,0.022606225072695052,-0.038717815276616954,-0.0902677555416355,-0.13121604388327218,-0.16094153654511778,-0.1800520374180244,-0.19123642134487945,-0.19908259498368075,-0.2082640561814043,-0.2202424896052153,-0.23176426714911913,-0.23713639921640606,-0.2321153474978851,-0.2169189471218231,-0.19649556937261414,-0.1774843368514323,-0.16435277312398588,-0.1573462063264441,-0.15335104694634213,-0.14885266567683728,-0.14173005415977216,-0.1306464362598833,-0.11431497772086602,-0.09224327792228422,-0.06623890974820448,-0.04076118620013698,-0.02126129996911744,-0.011622711920747878,-0.01220009976312304,-0.01932081435396599,-0.026733200839995648,-0.0288742283020264,-0.023944196771753214,-0.014343165911129007,-0.004390368798787715,0.00251457166924925,0.005149344641822286,0.004349899893494803,0.002726934480165092,1
-0.017879100181274567,-0.025162964312407436,-0.03145115414512024,-0.03452332746066702,-0.03330912996560071,-0.028130022885725497,-0.020584816198358218,-0.012676292595723185,-0.005045643959760966,0.003393061611643095,0.013506602961828242,0.02414563994771113,0.032638110769679596,0.036854936763601784,0.03630381306271705,0.03147031096038197,0.022992748475927013,0.011314001629318789,-0.003351638412623977,-0.020405922474089594,-0.03814948925587831,-0.0542689758378772,-0.06723400177581745,-0.0767405717043388,-0.08318587378550722,-0.0872734175823836,-0.08950688115694228,-0.08997771183658688,-0.08885135525969139,-0.08681051464942532,-0.08515445839110158,-0.08528860995728935,-0.08802964397405855,-0.09369570622198417,-0.10247677838810113,-0.11405471731695904,-0.12651923866914672,-0.13577768803313012,-0.13722594313508202,-0.12993590926944668,-0.11948838887417583,-0.11453128846677453,-0.11768983435066924,-0.11694378219215021,-0.08396093802343828,0.017488916052973147,0.21455959123525445,0.5044625421779794,0.8376082652606178,1.1188575788712791,1.238269999838808,1.122695209456321,0.7799049471499313,0.3061679230984685,-0.1521410646153346,-0.4642363841285729,-0.5715978832883205,-0.5040147422282506,-0.34891568836294073,-0.19766126545790372,-0.10386990677936081,-0.07406622527042706,-0.08530819972040236,-0.10943081683157867,-0.1280586284707189,-0.13584045189603705,-0.13617852702739858,-0.13477332262604957,-0.13534657586844853,-0.13857409160708137,-0.14282113274672184,-0.14524367364869242,-0.14324143802105266,-0.1363339225520488,-0.12658350998876466,-0.11687814790151833,-0.1092080976475638,-0.10418845686583306,-0.10159712962595963,-0.10129208282446554,-0.10328838336592822,-0.10712012388734882,-0.1116807546094862,-0.11543141982264148,-0.11699993570367988,-0.11646547132458508,-0.11550167833912356,-0.11547593952478778,-0.11588597970581511,-0.11460227086437896,-0.10935198832316077,-0.09964557618438782,-0.08755547861816422,-0.07612870468848248,-0.0667503723722022,-0.057888870830213435,-0.04628057959546507,-0.02958983414394751,-0.008219488927462281,0.015605656051211034,0.04069936102295703,0.06814183467590662,0.0994928117854118,0.13490856825631822,0.17284921422725633,0.21048106629787458,0.24438788367772912,0.27147976260470347,0.2897046554440487,0.298873001465423,0.301562534695383,0.30288229135056244,0.30863598397804803,0.3225972638116681,0.34396035715170364,0.36666171736449243,0.38163541236032594,0.3807995783777111,0.36050301038470745,0.32266321380798446,0.2731976347519414,0.21880862679352653,0.16348749892080203,0.10717530536821719,0.048534328923915356,-0.011358397660863898,-0.06907514465954029,-0.12190427631480516,-0.16953407362924877,-0.2124333149671137,-0.24943190186097866,-0.27713055338970477,-0.29132862167400353,-0.2900404884148131,-0.2761626479323631,-0.25657791013741327,-0.238102129070173,-0.22430842187498262,-0.2148018003969705,-0.20599271167350794,-0.19378002087265037,-0.17708745217761507,-0.1589886229587132,-0.14498102529325463,-0.13991122740028433,-0.1445564372915342,-0.15383570735410762,-0.1584474541976527,-0.14940228671388756,-0.12302359435852178,-0.08343306524704908,-0.0406905907516969,-0.0054410401648752015,0.016300675387076927,0.024713427245005096,0.024202610589932727,0.020419224246809822,0.017976702218036288,0.019220587409136257,0.023921252923314998,0.029955657966318685,0.03464458176445309,1
-0.016925894452580012,-0.03311225100730988,-0.03982682238414404,-0.03598999264955409,-0.02459321294790779,-0.010333554314820555,0.0025982153308462385,0.01174550875555858,0.017110289844852272,0.02052606027331582,0.023850267041810466,0.02751671202970163,0.03001578299120386,0.028661870632347985,0.021747026991253988,0.009983611788693551,-0.004137310612561502,-0.017987462112877294,-0.03065931318798115,-0.0437151028276953,-0.059413958362283636,-0.07787460200737616,-0.09571452338005522,-0.10751813758589923,-0.10948819253420217,-0.10244836066403445,-0.09196240842019898,-0.08556941433077783,-0.08864600635552926,-0.1012304703272246,-0.11810160398356755,-0.13294901005685386,-0.14335425440325972,-0.1516065653351519,-0.16132066048191504,-0.1734224571309381,-0.18406009025814402,-0.18621731311076342,-0.1754429276778839,-0.15604488439945516,-0.14075269804807158,-0.14042618715095365,-0.15006058093218042,-0.14222136384985481,-0.07355753866596536,0.09806375628470752,0.3905443660767295,0.7743884635104468,1.1626191193622577,1.4295378096349942,1.4594689259669533,1.2058744556257186,0.7273717579829253,0.1716118042028181,-0.29067732994163986,-0.5433905589353617,-0.5697753413011912,-0.44272140976141783,-0.2720431069642138,-0.14445384011520734,-0.0917801898615328,-0.09797906854098137,-0.12815102404256415,-0.15479534831042735,-0.16789294873538094,-0.17085668836192733,-0.1712424458324412,-0.1733698138674443,-0.1764341517482314,-0.17770532531787425,-0.17647282978783863,-0.17472340203520279,-0.1745153165834852,-0.17488100508291018,-0.17150600558977908,-0.16019875821257346,-0.1412663300922717,-0.12064670093964078,-0.10649957936611607,-0.10394332253128066,-0.11209902907457114,-0.1254132885147883,-0.1376277763743344,-0.14487928312818185,-0.1460858882455455,-0.14198835813319965,-0.13467126373502628,-0.12728595281397262,-0.12273196631719341,-0.12151840450352026,-0.12091845763880077,-0.11645724282712187,-0.10437592030917422,-0.08399389372012166,-0.05882803085587006,-0.03465055936075061,-0.015825441450372582,-0.0030558610408733984,0.00668023222743834,0.018216211142904955,0.03566544806569328,0.061381308681138384,0.09593221261820872,0.13782580171844336,0.1834691940187096,0.22795214953351597,0.2662091075087052,0.2943459594793027,0.3114988034164443,0.32101531784746523,0.3290105604288809,0.34097093996717714,0.35877910450099254,0.38006081035679234,0.39998150436506774,0.41325173263375947,0.41490798512092114,0.4006132554671658,0.36721726617086914,0.3139879547991315,0.244212110975853,0.16544854632027178,0.08716598801380213,0.017019848246318886,-0.04153231927375746,-0.08916411037722576,-0.12899239041360006,-0.16415883475080942,-0.1959121243518907,-0.22333164991337082,-0.24404729912642437,-0.2552568264504658,-0.25542925573129704,-0.2459897455532469,-0.23118375984031683,-0.21607472828244834,-0.20414858250612614,-0.19557909169402643,-0.18755842232039063,-0.1771713400526877,-0.16421073784083776,-0.15105074474350588,-0.14015686336778385,-0.13230140917906313,-0.12653028427062446,-0.12065086456141794,-0.11229156592056949,-0.10046019562693677,-0.08620906519483451,-0.07229158801903153,-0.06197643546958527,-0.05682086720838047,-0.05508418430543444,-0.05254673069374839,-0.04512317364618228,-0.03167419449603606,-0.014959620914423544,0.0005457524521460463,0.01201791838006232,0.019826260665315027,0.0261502561106293,0.03220256442035323,1
-0.024306905515516525,-0.030203649960355395,-0.030621144758341202,-0.026930237571996463,-0.021340856423031747,-0.015014127782661061,-0.008210518938154434,-0.001903173798271869,0.0019547890668862302,0.0024148359137183702,0.00113834006763029,0.001799409464390014,0.007729652820889077,0.01894170431986545,0.0309688393826771,0.037342052709444344,0.03366119794630154,0.019663367733361733,-0.0013467234297854696,-0.024079308756789437,-0.04347739600079208,-0.05722709981844385,-0.0664404397451449,-0.07399337331307684,-0.08208405780007727,-0.09004108572341456,-0.09427552162702399,-0.09155195172642724,-0.08268030761209463,-0.07316081035331427,-0.07019396959727411,-0.07793055293492625,-0.09457231162599676,-0.1138106682709667,-0.12882354385700942,-0.1355141549256503,-0.13393588595267875,-0.12742583850288336,-0.11975792463874217,-0.11356358370946583,-0.11157211166202287,-0.11674161359606876,-0.12794551408913724,-0.13419383022097942,-0.11279109315445446,-0.03349960686889018,0.13179404357542104,0.3930710078410412,0.7220630320535766,1.0418662262998302,1.2429414868450797,1.2273044504897648,0.9625152893425878,0.512316556763402,0.016903771590375854,-0.3710888899989547,-0.5572974126767861,-0.5421787009412458,-0.4046181615314642,-0.24696644219753358,-0.1395169412242354,-0.09811755975279184,-0.10018054454766344,-0.1156489380429814,-0.12661810123624528,-0.1299239788843608,-0.13109260635932482,-0.13645042086063686,-0.1473804653994261,-0.15943487049037344,-0.16555160907462027,-0.16050827315309052,-0.14415787705727792,-0.12186976760521126,-0.10195547702639177,-0.09123961280639241,-0.09123087845394401,-0.09813240446465693,-0.10672039897726265,-0.1138196355725126,-0.11894232686404999,-0.1230795341555525,-0.1267910933332285,-0.12910560106690672,-0.12852880083748308,-0.12501857396428506,-0.1205108653799267,-0.11738104463676742,-0.11636342304653723,-0.1158455438422619,-0.11304928483277431,-0.1057754066979424,-0.09367356238695551,-0.07859982837106559,-0.06361190315940853,-0.05109138076701482,-0.04100645472907,-0.030793464892577838,-0.017445873927704775,0.0005255896789448239,0.02321362772123355,0.05000086884610061,0.0794525488893016,0.1096927566649957,0.13980486706165707,0.1707924394108234,0.2045416700651454,0.241379440053026,0.2790099220644224,0.31353933731127603,0.34117236747164764,0.3600501688745173,0.371357423208595,0.3784469030585438,0.3845131743704969,0.39044524095704175,0.3935008679424126,0.3872879733039001,0.3640363252490933,0.31850065927361604,0.2517330619730832,0.1724602464492849,0.09366570002054567,0.026428528194539676,-0.024239863387854943,-0.06005491606833649,-0.0871711074087307,-0.11232449088391534,-0.1393009887921044,-0.16731278419932033,-0.19256445828318575,-0.21162806548315127,-0.22359363171453833,-0.22979231195275374,-0.23205283486511155,-0.23145285418905692,-0.22810496646953937,-0.22155325007424403,-0.2117646205730768,-0.19993258483618057,-0.18832036171244276,-0.17894581462534423,-0.1714627505718494,-0.1624494413295371,-0.14809733478925002,-0.12786396835671973,-0.1051486227656982,-0.08516586569901446,-0.07192128443982318,-0.06569746513565018,-0.06287356587482906,-0.05832669111195979,-0.048589131340384645,-0.03404738852082152,-0.019353186057842905,-0.011401481918710519,-0.014982803862960394,-0.02820586687134705,-0.04154691288812827,-0.04271027217879662,-0.024307508384476994,0.010820855841162977,1
-0.01524559588020293,-0.013737338330770498,-0.011062179436959212,-0.009319442693318278,-0.009058683175410915,-0.008597759145704889,-0.005675927855113851,0.0007096621136904802,0.00966349523055731,0.019000650367695382,0.026340726485132256,0.029993967096668066,0.029519810071460085,0.02556492549515815,0.019377728395270574,0.01248367231713132,0.005801678046983016,-0.001299549866103147,-0.01040266361675533,-0.022558964016979714,-0.03754039327625193,-0.05393620042894563,-0.06983822752249581,-0.08362583195348891,-0.09405085283494996,-0.10018070268248525,-0.10232491999729829,-0.1028751493386148,-0.10501473687261077,-0.11033200780155715,-0.11836646317431163,-0.12795002174614808,-0.13796698251156486,-0.1475401829748886,-0.1562165824789277,-0.16327450250355252,-0.16711901639634769,-0.1665971948875032,-0.16272450693267054,-0.1591158650493902,-0.16188827760186666,-0.17702245874925518,-0.20288840210032996,-0.22250462215979527,-0.20142228373424662,-0.09391187520493224,0.1399584469206088,0.5069511664157139,0.953817805980037,1.3628162839204745,1.587511761313842,1.5199573890123446,1.1523872246223272,0.5932098071015082,0.021671055249908405,-0.39560069500726214,-0.5773332485449386,-0.5493776623648214,-0.409181808699295,-0.26160780482928037,-0.1686595845687377,-0.13855155975726874,-0.14724787020792468,-0.1668029066110227,-0.18076859954537572,-0.18489555572927246,-0.18177938472000807,-0.17576134570599727,-0.16969964157362774,-0.16422715287061634,-0.1592231321452178,-0.1553234077122749,-0.15348399024501314,-0.1536470159038238,-0.15456048204078218,-0.15458298957070402,-0.15262350494143068,-0.14885965513433988,-0.14470787592685538,-0.1417762238745424,-0.1406694679492642,-0.14087010780714604,-0.14129211961719693,-0.14066526866039028,-0.13805996297625342,-0.133484954846411,-0.12781855059672967,-0.12206010212778834,-0.11674739157109904,-0.11198035259940516,-0.10752858675474822,-0.10262118886315166,-0.09594015070467511,-0.08649624641279673,-0.07441253567136918,-0.06018620277490656,-0.04398255966248871,-0.026359755964908037,-0.008136389653344806,0.011003126998365354,0.032473895687395164,0.057471867379944586,0.08620589221264822,0.11768722859418382,0.15006829629629706,0.1818732986614651,0.21280411490980464,0.24317266003598925,0.27318251242463526,0.3024089056021635,0.32924935176748243,0.3517237356549612,0.3693518096847373,0.38365906547129985,0.3964813227697052,0.4074788393702553,0.41316391489558707,0.4080455722160545,0.3867135182474465,0.3464379775787292,0.2891276745181466,0.22079425724260118,0.14894719334317102,0.0799997577972259,0.01776774752967486,-0.037336911287521854,-0.08780618456205795,-0.13598833008601308,-0.1804674496866816,-0.2158026067520717,-0.2363687814977229,-0.24091575860027262,-0.23395373000213732,-0.22307204429612132,-0.21452970523559584,-0.21038016319593966,-0.20879886350495436,-0.20648576321919726,-0.2010028619054381,-0.19192099959621572,-0.18059026968390507,-0.16911118194515512,-0.15905007654533815,-0.15049026362344595,-0.1425177436031423,-0.13449355215428932,-0.1261625476763524,-0.11707465916368073,-0.10696641465077684,-0.09640407725055311,-0.08636103383418342,-0.07729420089957675,-0.06868523324327246,-0.05930789687675919,-0.04825533306174397,-0.036040740342904026,-0.024453074027257285,-0.014950303681182848,-0.007489436815136329,-0.001226206912742927,0.004214853930638279,0.008540233253997775,1
-0.021515647929390556,-0.002694194425127415,0.010167686707282667,0.012337758783430084,0.004362893332578773,-0.007755133500016201,-0.015752746676022427,-0.013873457275464428,-0.0023211796219306923,0.013116045931768629,0.02517341391105492,0.0297108587284649,0.02743066021959948,0.022033444854445514,0.016779712111554695,0.012330683846172821,0.007493113666407743,0.0013986193602798839,-0.005971308872339926,-0.015078805481330794,-0.026846299617808482,-0.04109786188743107,-0.056240618705174716,-0.07031512892361012,-0.08176720325022677,-0.08975440759404878,-0.09416847887867226,-0.09519347475903227,-0.0930664957874,-0.0884961229593593,-0.0828239284169917,-0.07806584022836544,-0.07706771456485295,-0.08220735833340384,-0.09289728907306999,-0.10483647259356213,-0.11229356460451663,-0.11126931294229409,-0.10175404447274441,-0.0895455520530649,-0.08544867140001987,-0.09802508567890698,-0.12280251280530059,-0.1361750732132134,-0.09924632956479133,0.028032905156177988,0.2655857425933446,0.5915618635317788,0.9320436671295694,1.176065270786128,1.2189881543446837,1.0155473893942728,0.6108706934196643,0.12714445267279473,-0.28976161777631215,-0.5343356329674938,-0.5813701847503944,-0.48296745708345057,-0.3287004864695176,-0.19596643480346548,-0.12040521920033212,-0.09721780208643122,-0.1018547124025174,-0.11087884429848752,-0.11223970772408005,-0.10608615272827836,-0.09970706925619388,-0.09971402059318711,-0.10702837544331775,-0.11760195926125278,-0.12651446899800317,-0.13138751242912936,-0.1322837398513551,-0.1296747069807673,-0.12377658133989644,-0.11523209383802774,-0.10598700537114718,-0.0992924304866719,-0.09759632052981773,-0.10041978521547205,-0.10516736310115546,-0.10915929198135196,-0.11074939487514729,-0.11014011182102823,-0.10909290314792006,-0.10893855648852621,-0.10923662082622523,-0.10837001097386244,-0.1050105347736221,-0.09933805272549565,-0.09320408062330333,-0.0886426808933562,-0.08579461889282874,-0.08271230432627553,-0.07691540488727586,-0.0664529541230221,-0.05022194540892764,-0.02829330922563074,-0.00206914552454494,0.02614307593641587,0.05405905638897962,0.08016240912718968,0.10374775797238504,0.12480460659806786,0.14464265148202923,0.16663233798400442,0.19508703375050232,0.23206589179623363,0.2747439013180044,0.31603947739253824,0.3484344515463531,0.3682135690507167,0.3770737864785982,0.37981662635519353,0.3799524386331845,0.3773695895791124,0.3694223765581646,0.3527535893752909,0.3245409611722419,0.28372897468104025,0.23139587469824285,0.17000019796911695,0.10307584479840648,0.03563878184130925,-0.02656304430982047,-0.07941095648629667,-0.1216319724746753,-0.15379466039818745,-0.1774644368618053,-0.19515439637141635,-0.20962282099218973,-0.22229924566586723,-0.23225788120539698,-0.2372269732881113,-0.23561581880603347,-0.22757208399351112,-0.2151194550960532,-0.2016080296139497,-0.19038701308921394,-0.1833225326558945,-0.17995347032360137,-0.1777711656703012,-0.17311688192157024,-0.1623484910595028,-0.14352262855697745,-0.11820557754747466,-0.09205917738719427,-0.07244835211938293,-0.06402646503031675,-0.06580656310647108,-0.07143255537431763,-0.07244694663977935,-0.06324776737427337,-0.044402345474973265,-0.02166520341520044,-0.001878967043956483,0.011001493803730257,0.0174747700208926,0.020880206269783194,0.024182374844920484,0.02843087602902212,0.033317615558973196,1
0.005182357662519152,0.004006911436688392,-0.008529532798793926,-0.02731455582785329,-0.0415255373436559,-0.041092129307466335,-0.02297118571646698,0.006394077680445378,0.03423224585467345,0.04865460546171576,0.045587407572490135,0.030953974441012132,0.01623923180346073,0.010781044350411597,0.016262500480558797,0.025832895589429673,0.028075881009551076,0.01403731650823281,-0.017517272863337277,-0.059419317364604665,-0.09866826907444841,-0.12157970014666013,-0.12100836417603529,-0.10131035568757665,-0.07652314671562521,-0.0626838159306059,-0.06904056434838825,-0.09339019353286679,-0.12470103796851263,-0.15058324208917923,-0.1635688725896992,-0.16331834428807604,-0.1554794247211014,-0.14798664122557903,-0.14667758750296622,-0.153154164380898,-0.1656593188721509,-0.18120669085513622,-0.19677305085460978,-0.20948452757857758,-0.21694091022539908,-0.21684183179358454,-0.20404365077950312,-0.16496098356601413,-0.07250838181115658,0.11128329686287138,0.41613420476545954,0.8288742737017374,1.2662998050009897,1.5866052084986537,1.6472235964960904,1.3818580091105206,0.8492273200295186,0.21632390859229506,-0.3193908745109825,-0.6218405779037357,-0.6686158136537421,-0.5393195113236406,-0.35543285949393943,-0.21336638281492115,-0.14946781534980913,-0.1477596568188295,-0.1713260822237123,-0.19027954677178882,-0.19332808241270544,-0.1847531611307613,-0.1740957751506752,-0.16750746697502283,-0.1660941441860589,-0.1685174804420147,-0.17304211868145555,-0.17796348611837942,-0.18137129317898698,-0.18138894724860236,-0.17729514457988388,-0.17032466487051806,-0.16290106986750547,-0.15665184727246945,-0.1510149783908045,-0.144385881993151,-0.13688958004637553,-0.1311471921483051,-0.1298915772090835,-0.13283476280688367,-0.13585549838438107,-0.13385840048187134,-0.1246811752915741,-0.11030410094470039,-0.09494019326964229,-0.08238066431492301,-0.07462825003104549,-0.07151345969839884,-0.07080648598810568,-0.06937084241600679,-0.06456022902137845,-0.05475675178185044,-0.03966286210749337,-0.020534489230544076,0.0005924248986279926,0.02250493263843761,0.04587008413436458,0.0726345470942607,0.10396719448101485,0.1390429074397325,0.17626363174119508,0.21491414579846466,0.255007499739635,0.29573230861950767,0.33431927637208114,0.3670067096779204,0.39155264104270754,0.4085476260269599,0.4201714928344209,0.42784368944714285,0.4308627745865159,0.42670982185462375,0.4122443366584653,0.3849926296752745,0.34415370119610506,0.29117675643913865,0.23001093527678118,0.16627770203313896,0.104729110664325,0.047128356809647165,-0.006847167749304939,-0.05721725285406125,-0.10317922389902515,-0.14409635273756455,-0.1797369723837829,-0.2096580059048135,-0.23297510310914862,-0.2491598358200582,-0.2590302616841303,-0.2647925044456432,-0.2688769614449843,-0.2719050479902861,-0.2717815594524862,-0.26559581913064834,-0.25218265320261274,-0.2327709717795019,-0.2100220594270295,-0.18666385211247577,-0.16451076298751047,-0.14460795651115385,-0.128438924606852,-0.11812154980508253,-0.11444784979972064,-0.11510056621229174,-0.11481841978262863,-0.10710713796199664,-0.08770116299264313,-0.05848629549261354,-0.027827481694178292,-0.005776787093276649,0.002585534618387883,0.0005373202993930112,-0.0032165229806614543,-0.0012605731798247533,0.008033042254311652,0.02126119740655512,0.03344809578228399,0.04032839569789442,1
0.026543192147758757,0.021039993968678068,0.007427277925050694,-0.009170963878207334,-0.020484203791460185,-0.020318162273003423,-0.008672153714033752,0.008825057046892827,0.02497313965898173,0.035091796053799355,0.03875446449886105,0.037814724950135874,0.032153400138226006,0.018535132117806795,-0.004871557209345123,-0.033756054084214504,-0.05870824048253234,-0.07139740691946558,-0.07017266407635751,-0.05976651498039157,-0.046167823529504735,-0.03286568436828928,-0.021470183332490782,-0.014228213706733571,-0.014873823351708008,-0.02613303555376973,-0.046136911756962926,-0.06792468202136005,-0.0831717119622614,-0.0877607996211664,-0.08439725293116385,-0.07944913092118945,-0.07770484188310439,-0.08011778791713454,-0.08519851769343748,-0.09129484684888486,-0.0970052249842026,-0.09992418580203913,-0.09645889713004635,-0.08487931855345325,-0.06995571387600627,-0.06252897800120436,-0.06996369493362697,-0.08457527086597837,-0.08019834563603077,-0.019885371022356393,0.12706405961824938,0.36385246679551586,0.6503463184961339,0.9047884385297266,1.0303526555694578,0.9587216451125382,0.6885931170378848,0.29504807101057173,-0.10034066737553318,-0.3839982842132639,-0.4987792183405324,-0.4610282752620626,-0.34033605251017784,-0.2167139351786564,-0.1414722718902669,-0.12280106399693416,-0.1373290341536388,-0.15247966651673478,-0.1450927194757313,-0.11082966428435173,-0.06338815293297402,-0.024659854164688338,-0.011177326184592024,-0.02500947692065276,-0.05445903178989645,-0.08288537633353651,-0.09873891227784987,-0.10064512767588327,-0.0957101654387878,-0.0932634267020293,-0.09905511350780354,-0.1132113697142774,-0.13074916451500637,-0.1438129702164254,-0.14576994836602597,-0.13483709470085609,-0.11493262368047526,-0.09368162696372115,-0.07889761836627918,-0.07499616280060792,-0.08055090652876382,-0.08901258391559325,-0.09308103598754383,-0.08938156220589591,-0.07997263468520355,-0.07043032750620445,-0.0662459619754106,-0.0693956622619948,-0.07687977872196708,-0.08204690850372125,-0.07748040789600448,-0.05846938846535121,-0.026711223105894542,0.008892502176227574,0.03721749646040347,0.052157540051678754,0.05664866370516408,0.061498261429072706,0.07910676148535054,0.11560093111168904,0.16713320668685205,0.2225820610819777,0.2703946252528012,0.3044793830991314,0.3253562283909826,0.33779307949233156,0.3472877956533461,0.3565378596039966,0.3638840956032302,0.3645502247050002,0.3534337353270043,0.32806613452934047,0.29019630259866025,0.2451987770996427,0.20008458285738173,0.1604972616262894,0.1270237100248973,0.09374204947144332,0.05169819344081188,-0.004508423175386203,-0.07145216877706351,-0.13667371649104182,-0.1844879089795171,-0.20469169001191664,-0.19903666483133092,-0.18088175444665974,-0.16712719265573028,-0.16788307696282356,-0.1816460904200751,-0.19905549739882886,-0.2109643813183202,-0.21348841194129087,-0.20737670031190308,-0.19497572724473283,-0.17815434419586834,-0.15828213501693733,-0.1377821466012112,-0.12076198507426647,-0.11105472442940476,-0.10924205099492697,-0.11134663709126304,-0.11078873564787929,-0.10241008295388873,-0.0852359009457968,-0.06228095560588787,-0.0387631296035528,-0.020339934873858902,-0.01128540475466907,-0.012877939548171975,-0.022810442379572943,-0.03514235234207475,-0.04109973682133629,-0.03258357929256094,-0.007772209707268343,0.025366190734408805,0.05177485873511809,1
